from,to,distance
3,6,37.75857104268819
3,7,48.83273567446897
3,8,36.02412527454243
3,9,24.021999893092378
3,10,13.468630025347919
3,11,11.060665424992868
3,12,17.82478002532442
3,13,26.731436411299686
3,14,39.89035590907954
3,15,51.160836405118395
3,16,40.21606999442229
3,17,31.449834619212194
3,18,25.21927570794233
3,19,23.546088027899955
3,20,25.565552692268096
3,21,34.36811585873265
3,22,45.04514945522647
3,23,55.734803881660554
3,24,49.24495210731798
3,25,41.67042500054466
3,26,37.91416498220138
3,27,36.40012836782316
3,28,39.614204449836166
3,29,43.831889698553574
3,30,54.49657656033712
3,31,60.627140605510164
3,32,58.09087048113426
3,33,53.595811129841444
3,34,48.51209650775538
3,35,48.24186041215208
3,36,50.99405473008741
3,37,56.17013187637162
3,38,61.713771910975055
3,39,68.85094225674885
3,40,68.34024661621504
3,41,63.53730104947538
3,42,61.41765655360733
3,43,60.33939866982324
3,44,63.47234640197361
3,45,68.21165932160758
3,46,72.04354420722711
3,47,77.0071616833214
3,48,78.84538638629923
3,49,77.57286188673304
3,50,74.7019976571719
3,51,75.89250018155089
3,52,78.12894739795419
3,53,82.76767547664902
3,54,84.50497864930874
3,55,86.25434284863377
3,56,90.32117514243184
3,57,86.78914430879334
3,58,83.61175794651668
3,59,87.04548833929496
3,60,89.60749870297637
3,61,90.6749331672822
3,62,93.14391481180157
3,63,95.35334449338987
3,64,99.73181621335002
3,65,95.70846938146752
3,66,89.82599929268554
3,67,84.87189383568263
3,68,80.20277729618782
3,69,75.16195315005767
3,70,73.7238027103917
3,71,70.95510095019216
3,72,89.44855125485115
3,73,100.20012722426232
3,74,103.08783879045812
3,75,102.91961937935635
3,76,107.25696425948759
3,77,101.29961913120063
3,78,108.66271374451563
3,79,110.35489892881799
3,80,108.59094377648788
3,81,103.93835429059249
3,82,95.03160015544557
3,83,84.28323903763118
3,84,102.92439651352008
3,85,100.63881700267805
3,86,98.16887663054771
3,87,99.58264446853468
3,88,105.88785311085077
3,89,105.7150398733284
3,90,82.08083418907262
3,91,84.64627479349718
3,92,90.66268971558873
3,93,91.84102600490155
3,94,95.20890654892793
3,95,97.94663304469026
3,96,97.56006792082233
3,97,97.01850890217376
3,98,77.04162743766184
3,99,70.87485661688515
3,100,63.13523280467062
3,101,55.70192043167715
3,102,51.26523194261505
3,103,48.63743349378356
3,104,45.369141283385716
3,105,41.3531597967904
3,106,38.2351373510731
3,107,35.23646089892865
3,108,32.244024879864924
3,109,29.75218238545924
3,110,26.893226763630267
3,111,75.62577954945132
3,112,74.7439270052212
3,114,76.96966689282633
3,115,78.84279965088227
3,116,123.6655612765132
3,118,120.91419619435855
3,120,120.26169372994126
3,123,123.68323447775873
3,124,127.21241454161043
3,125,131.31034485469937
6,7,12.238322688784367
6,8,72.44600880641832
6,9,60.217561632380146
6,10,47.43330172385106
6,11,37.84794808744642
6,12,26.131630788666847
6,13,16.042581081378362
6,14,10.32040039618614
6,15,16.35615844407103
6,16,74.02450069688557
6,17,63.36541129744117
6,18,53.05956487700029
6,19,43.1384832833531
6,20,33.47374937896931
6,21,26.22051321342005
6,22,23.270822196303605
6,23,25.920043686203876
6,24,79.29768521423503
6,25,68.349971046951
6,26,59.4178149402902
6,27,51.194478590528306
6,28,43.75592856879035
6,29,38.80601615610666
6,30,37.10397273904997
6,31,36.22600202572998
6,32,84.72004604927908
6,33,76.9781471496811
6,34,67.46644833727102
6,35,61.00015133784344
6,36,54.31291796286776
6,37,51.7017749362555
6,38,49.13924662048855
6,39,49.73344150502747
6,40,92.04115728395165
6,41,85.04401532819531
6,42,78.65772158929884
6,43,71.57423940326233
6,44,67.50713471529845
6,45,65.11219164576173
6,46,61.31766260450084
6,47,60.425821443676455
6,48,100.52094277584192
6,49,96.110112857762
6,50,88.72705807793774
6,51,83.98825609815785
6,52,81.04489387114023
6,53,80.93024465251638
6,54,75.64454850584545
6,55,72.0143848842539
6,56,110.07254137244959
6,57,103.7421168569365
6,58,96.88652944765914
6,59,95.156273427218
6,60,93.04915019948635
6,61,89.71986992546226
6,62,87.08600523147484
6,63,84.7164029022849
6,64,132.87199396037107
6,65,129.05864533043157
6,66,123.1394459256562
6,67,117.01299646181884
6,68,111.20446907049887
6,69,103.7540375442078
6,70,99.67064686487736
6,71,93.1130511416892
6,72,100.91693151130362
6,73,114.89882791168037
6,74,119.88791604852311
6,75,122.52503305248243
6,76,125.84502738295934
6,77,120.87295729905271
6,78,125.61872630963846
6,79,125.5845340014713
6,80,123.00808965590865
6,81,119.11387073850187
6,82,111.74062701268652
6,83,100.28808136837306
6,84,113.25563410039933
6,85,108.71655666597933
6,86,104.67252691530686
6,87,106.74593422059698
6,88,116.04980883954913
6,89,119.11038600661374
6,90,76.17344195592987
6,91,79.02939886462975
6,92,86.10433562194191
6,93,89.83140013721567
6,94,93.85669760419047
6,95,98.32354195183089
6,96,98.21902279126832
6,97,97.83033732039347
6,98,94.27300245557907
6,99,88.9729473792217
6,100,82.52859489533189
6,101,76.36024828764036
6,102,72.79247123187847
6,103,70.52734972265075
6,104,68.23735751616147
6,105,65.45449645975098
6,106,63.391067151628164
6,107,60.90707854992067
6,108,59.23675095662323
6,109,56.479102047011274
6,110,54.99371023400888
6,111,100.56900285219962
6,112,98.45552020452506
6,114,98.0128735790562
6,115,97.74491547039284
6,116,138.79782530794856
6,118,134.30988833607165
6,120,131.66363091156586
6,123,127.89764085698334
6,124,131.10560512647578
6,125,134.98160371144087
7,8,82.92835814845478
7,9,70.95660651355
7,10,58.40156100687965
7,11,48.88050690908371
7,12,37.22527051498167
7,13,26.99966014645206
7,14,16.487385818016556
7,15,11.622337256758081
7,16,84.29980239112164
7,17,73.76472060943641
7,18,63.41893368177209
7,19,53.277796270083606
7,20,43.248057151966435
7,21,34.360689992015004
7,22,27.148537632458353
7,23,23.40067547535658
7,24,88.91043953106708
7,25,77.74659694858596
7,26,68.41014572939555
7,27,59.72771575025527
7,28,51.12486995948289
7,29,44.71025226922332
7,30,38.92340760722368
7,31,34.405481565031934
7,32,93.28137722100111
7,33,85.16787666666009
7,34,75.39294824677502
7,35,68.12385501796584
7,36,59.9950118576048
7,37,55.549536902299586
7,38,50.65832640166147
7,39,48.159778900079885
7,40,99.56369576228659
7,41,92.41534836364146
7,42,85.50106108617342
7,43,77.61254105585509
7,44,72.16131029280584
7,45,67.94078655831083
7,46,62.01896014055102
7,47,58.60141743748727
7,48,107.06675813497866
7,49,102.21964981892984
7,50,94.20154271078702
7,51,88.34371613479013
7,52,84.2533622939205
7,53,82.86111462834025
7,54,75.72697486510108
7,55,70.07704563488058
7,56,115.76738647615585
7,57,109.11505231797501
7,58,101.77640627998761
7,59,98.89545909351176
7,60,95.60781340562245
7,61,90.99395791719257
7,62,86.95757888874884
7,63,83.00854015136557
7,64,140.87613489124809
7,65,137.4024024112473
7,66,131.86125152446206
7,67,125.79550146997762
7,68,119.91886006461829
7,69,112.16779538389866
7,70,107.51062337308475
7,71,100.20585740856595
7,72,102.6912433392134
7,73,117.59299346049384
7,74,123.22697996935061
7,75,126.85055694430994
7,76,130.24565457014143
7,77,125.95606439820112
7,78,129.19688802988725
7,79,128.90436629034588
7,80,126.56137407171408
7,81,123.25804982815062
7,82,116.68061060707083
7,83,105.6120103369738
7,84,114.78929803641701
7,85,110.10832244486855
7,86,106.09848369481686
7,87,108.75203806806738
7,88,118.9081145649165
7,89,122.75339868364382
7,90,72.4637052121897
7,91,75.59749540974623
7,92,83.17150035433447
7,93,88.06750164549439
7,94,92.61989566123356
7,95,97.86118289255657
7,96,98.53557793000178
7,97,98.71419407110123
7,98,98.4313522999201
7,99,93.41757895995637
7,100,87.38911407141553
7,101,81.6785396894349
7,102,78.39545505961
7,103,76.24351825071267
7,104,74.26863540393832
7,105,71.88122961878896
7,106,70.14400860422992
7,107,67.8764551506582
7,108,66.56537236800672
7,109,63.86477324013998
7,110,62.80709846420701
7,111,105.6010838103274
7,112,103.15712287878935
7,114,102.03445748462248
7,115,101.23146176486395
7,116,140.39810275759302
7,118,135.1556873446235
7,120,131.71715823523607
7,123,125.68778481163329
7,124,128.66754843391348
7,125,132.3478921517567
8,9,12.500492677081018
8,10,25.667902239876504
8,11,35.64058419309176
8,12,48.173631818161624
8,13,59.04317612377856
8,14,72.34335017252108
8,15,83.48962213630354
8,16,11.343635341581301
8,17,16.839462907175516
8,18,26.459942203259917
8,19,37.438402361811576
8,20,47.86002007738157
8,21,60.52782256145714
8,22,73.27258441517954
8,23,85.21741622467495
8,24,24.32535202192673
8,25,27.41044027254887
8,26,34.6459363406715
8,27,42.705782091624776
8,28,53.98070090077221
8,29,62.94241874685853
8,30,77.58308847073891
8,31,86.30624945619748
8,32,35.5758147920215
8,33,37.76002796870174
8,34,41.536899938701346
8,35,48.977863652799314
8,36,59.9485475647484
8,37,69.66594483903988
8,38,79.61976290534606
8,39,89.61404770488964
8,40,47.310694398387255
8,41,46.78346612006947
8,42,50.98405147949465
8,43,57.458495140926985
8,44,67.0173621730386
8,45,76.88276620432465
8,46,86.08273081668753
8,47,94.48784604766607
8,48,58.41599241910488
8,49,61.20828117818159
8,50,64.30786956067259
8,51,71.76912768988483
8,52,78.75923712432308
8,53,86.96904330739441
8,54,94.60463488413208
8,55,100.45875919635158
8,56,70.54742244893784
8,57,70.68609049604679
8,58,72.21243985390963
8,59,80.60997271116246
8,60,87.47008215297477
8,61,92.58236743234431
8,62,99.35827653676854
8,63,105.27798263268228
8,64,67.54637841401332
8,65,62.365039328698806
8,66,55.6341824417117
8,67,51.3436231222443
8,68,48.006398406024225
8,69,46.348828144897574
8,70,48.61117038887805
8,71,51.4039410142812
8,72,81.4853793428405
8,73,86.61844804789078
8,74,86.67085364583714
8,75,83.07194857847499
8,76,87.4875092270029
8,77,80.70034303261062
8,78,90.99557267024242
8,79,94.03214345888289
8,80,92.89465367417169
8,81,87.7202659362008
8,82,78.08115243165372
8,83,69.6716007018338
8,84,93.39733756062834
8,85,93.10043512445097
8,86,92.1627511868619
8,87,92.41280409041717
8,88,94.74364458230245
8,89,91.215247881567
8,90,94.2369884787891
8,91,95.1240636767371
8,92,98.28015589474997
8,93,96.17620911452752
8,94,97.84674366550067
8,95,98.1905750032335
8,96,97.12075236185073
8,97,96.33221873098226
8,98,63.84082112958767
8,99,58.28971174015568
8,100,51.52308734416693
8,101,45.49723002570935
8,102,42.22908493187098
8,103,40.804283088011225
8,104,38.291332380637876
8,105,35.52391219655219
8,106,33.601696422279524
8,107,32.793042821941405
8,108,31.620681998015943
8,109,32.81808869811844
8,110,32.20700131853725
8,111,62.378868124150536
8,112,64.83986718827917
8,114,72.6275877065466
8,115,77.80526530867576
8,116,109.7638376289178
8,118,110.30838497178489
8,120,113.0410838455629
8,123,123.22202479406324
8,124,127.35843870616348
8,125,132.0414396254089
9,10,13.242168996284734
9,11,23.294853860792553
9,12,35.854900229392406
9,13,46.72679848789062
9,14,60.152906290579324
9,15,71.49787905942377
9,16,17.10119529024568
9,17,12.696057487902856
9,18,17.272447284908765
9,19,26.73387305755137
9,20,36.41747358607427
9,21,48.88822452954835
9,22,61.57189774369276
9,23,73.54639229539184
9,24,28.58348768279144
9,25,25.90662285549785
9,26,29.10667921608123
9,27,34.70263794746189
9,28,44.5440533302357
9,29,52.76236096554372
9,30,66.95349472331665
9,31,75.37459939764793
9,32,39.46004122410801
9,33,38.389479963756145
9,34,38.39066349162855
9,35,43.45991428714924
9,36,52.37958664288297
9,37,61.203026389128446
9,38,70.28663142442204
9,39,79.88122820560874
9,40,51.14836958191494
9,41,48.493705972316384
9,42,50.033518513718654
9,43,53.78063074613478
9,44,61.48020450119176
9,45,70.07612133874251
9,46,77.96562351434306
9,47,85.72578174749243
9,48,62.52838281033302
9,49,63.44472772836536
9,50,64.02312932848741
9,51,69.23683593526161
9,52,74.71172792327907
9,53,81.91388734533312
9,54,87.86205485976815
9,55,92.74071569114325
9,56,74.73961154288628
9,57,73.14096207375638
9,58,72.62685498790724
9,59,79.25271556524275
9,60,84.70466102421699
9,61,88.59509720439483
9,62,94.07535031020544
9,63,99.00722868162467
9,64,78.9642887745929
9,65,73.96226395559266
9,66,67.17838207953994
9,67,62.06274872600181
9,68,57.77353684090005
9,69,54.08260073627434
9,70,54.509498445878904
9,71,54.72552115444865
9,72,82.55593635477241
9,73,89.69008201979591
9,74,90.77642695627428
9,75,88.36731445022818
9,76,92.43529625297778
9,77,85.66905977087578
9,78,95.40012056662616
9,79,97.72844272378546
9,80,96.02407966459468
9,81,90.78993943547884
9,82,81.15263178347534
9,83,71.41835761556362
9,84,94.87994278507423
9,85,93.50640491460234
9,86,91.72453956374461
9,87,92.1433602535771
9,88,95.88198375090107
9,89,93.64853922099599
9,90,89.20672982675916
9,91,90.36090848937866
9,92,94.16898016342056
9,93,92.81059475774215
9,94,94.79650877896435
9,95,95.7475415266109
9,96,94.52513062888414
9,97,93.56194421252142
9,98,66.14380664147888
9,99,60.31289959922577
9,100,53.10659994920267
9,101,46.39803111316166
9,102,42.61331697277195
9,103,40.73451742681861
9,104,37.83225099617175
9,105,34.453547329656445
9,106,31.97360431859355
9,107,30.29171483031865
9,108,28.488599251752518
9,109,28.582795501935035
9,110,27.26173656230821
9,111,67.07044480610159
9,112,68.49735240256831
9,114,74.68603455169169
9,115,78.88581118730013
9,116,114.05470394548638
9,118,113.70124576620218
9,120,115.50711977730573
9,123,123.30496380481718
9,124,127.39439840774877
9,125,132.05569479688887
10,11,10.092832673604589
10,12,22.658164769126785
10,13,33.56123741083576
10,14,47.066183468212444
10,15,58.60530515293902
10,16,27.61976042097677
10,17,18.100161589169144
10,18,12.81863400257852
10,19,16.507601857502603
10,20,24.28079880009233
10,21,36.28556047258061
10,22,48.81629530295496
10,23,60.80456876431202
10,24,36.08210129512338
10,25,28.77979698015984
10,26,26.60999119295043
10,27,27.937851060098264
10,28,34.987105240268896
10,29,41.92265790718966
10,30,55.32526799130602
10,31,63.35179264045647
10,32,45.41425849173225
10,33,41.404618908874504
10,34,37.40516063224157
10,35,39.130671776392
10,36,44.902672879814496
10,37,52.285471452852754
10,38,60.12318203738004
10,39,69.13587558550896
10,40,56.25361497412
10,41,51.71301954862071
10,42,50.42515092460586
10,43,50.9231787096506
10,44,56.086796788284175
10,45,62.90095883472896
10,46,69.08995460047251
10,47,76.00832587528349
10,48,67.38705186949619
10,49,66.41315644222708
10,50,64.36889524841047
10,51,66.95522463574251
10,52,70.56928781853301
10,53,76.45668249344355
10,54,80.38801360277165
10,55,84.10917543630151
10,56,79.30322715136475
10,57,75.99743766463051
10,58,73.39278538132808
10,59,77.93785207416599
10,60,81.72194005567816
10,61,84.18526484396405
10,62,88.13404461599717
10,63,91.90945942909732
10,64,90.89329421275713
10,65,85.9498026494341
10,66,79.03122771067942
10,67,73.12253666618018
10,68,68.02490988793119
10,69,62.62186007265271
10,70,61.37178221907839
10,71,59.15165610652601
10,72,84.1173239292287
10,73,93.03389528267665
10,74,95.11014103053832
10,75,93.88348807451061
10,76,97.44880124120044
10,77,90.78587241046954
10,78,99.87987178130895
10,79,101.40302547824864
10,80,99.09111848308984
10,81,93.86606399614071
10,82,84.42601975428968
10,83,73.6045575137792
10,84,96.45717004942865
10,85,93.89179901589384
10,86,91.19164378999672
10,87,91.72918692847834
10,88,96.85944783289246
10,89,96.01654584034385
10,90,84.4728351279519
10,91,85.72428944916649
10,92,89.99796347844165
10,93,89.33141601146998
10,94,91.51381216081559
10,95,93.03248021367229
10,96,91.57957343903556
10,97,90.40734103080979
10,98,69.29782829124593
10,99,63.469567537595076
10,100,56.271577001977015
10,101,49.4167131452621
10,102,45.517154851702756
10,103,43.44321358180355
10,104,40.53409922301967
10,105,37.07580040937395
10,106,34.50873424770572
10,107,32.31823429513083
10,108,30.417082204278913
10,109,29.42480397291901
10,110,27.816773639820326
10,111,73.86165802829247
10,112,74.48233457392766
10,114,79.28926517572647
10,115,82.54363610992124
10,116,118.60740106083486
10,118,117.53302917627173
10,120,118.55845837871526
10,123,123.77857467291832
10,124,127.86102034213181
10,125,132.55343117120432
11,12,12.57556842414682
11,13,23.517461420366534
11,14,37.016842757510034
11,15,48.65534481605404
11,16,36.60026472034949
11,17,26.01070936046548
11,18,16.87741229116446
11,19,12.563805467337327
11,20,15.840619143792079
11,21,26.825144729979602
11,22,39.03609043802052
11,23,50.93721658779652
11,24,43.262562041083974
11,25,33.89019673079104
11,26,28.312553133924915
11,27,25.66486966055054
11,28,29.078316712296395
11,29,34.285633839773496
11,30,46.56575677213841
11,31,54.09064337521491
11,32,51.19676993629025
11,33,45.503187977542886
11,34,39.00300418273144
11,35,37.896842036554624
11,36,40.48183204793012
11,37,46.20039219054965
11,38,52.66901489948964
11,39,60.964903319629094
11,40,61.063631068367265
11,41,55.423892824216274
11,42,52.20824562146082
11,43,50.20706137691967
11,44,53.057148794845155
11,45,58.099442344290786
11,46,62.63953956352262
11,47,68.65706695322174
11,48,71.69170519106139
11,49,69.44465947235308
11,50,65.56853391235532
11,51,66.07970246616186
11,52,68.11233222298806
11,53,72.79605220009937
11,54,74.95879494622882
11,55,77.59316187349961
11,56,83.15409519325107
11,57,78.71593596014593
11,58,74.6616303478612
11,59,77.53892485532302
11,60,79.93495964695931
11,61,81.18024530045737
11,62,83.818162096798
11,63,86.5638641317169
11,64,99.71099351067761
11,65,94.83209888126933
11,66,87.88061514504587
11,67,81.51784689555438
11,68,75.95888435167946
11,69,69.55172182568796
11,70,67.21983539849691
11,71,63.40698446213478
11,72,85.50260263697835
11,73,95.6277112501321
11,74,98.41564366244582
11,75,98.08224933893693
11,76,101.2916528249584
11,77,94.82126564668413
11,78,103.2667986275998
11,79,104.20526945116117
11,80,101.51817271875473
11,81,96.40444476818557
11,82,87.27549006106122
11,83,75.89734322710302
11,84,97.69721124832718
11,85,94.2922109660311
11,86,90.96138394001409
11,87,91.63339491537825
11,88,97.7912897393018
11,89,97.99962315111546
11,90,81.0291879836815
11,91,82.30134843976195
11,92,86.8640191212287
11,93,86.7563388919909
11,94,89.08260473342143
11,95,91.05471128103366
11,96,89.50262279293315
11,97,88.2396604216622
11,98,72.15901154576254
11,99,66.46452561400297
11,100,59.477031070749874
11,101,52.776910698302004
11,102,48.98357949190071
11,103,46.893684472764654
11,104,44.162512681438095
11,105,40.908533390660985
11,106,38.514201885333854
11,107,36.221986828788694
11,108,34.52753323832046
11,109,32.99723705958369
11,110,31.51366500348096
11,111,79.42994636518186
11,112,79.56733951122686
11,114,83.4900992234227
11,115,86.09745919976498
11,116,121.8424835835877
11,118,120.2656956710311
11,120,120.74131155574192
11,123,123.98121376932536
11,124,128.0509242625932
11,125,132.7634344401208
12,13,10.99646982606995
12,14,24.522066228760945
12,15,36.37089282457062
12,16,48.617248661227904
12,17,37.624355694490355
12,18,27.182011122797633
12,19,17.857587353207304
12,20,11.424574585295352
12,21,16.675184124865897
12,22,27.502703663624498
12,23,39.0305988960529
12,24,53.91685239102124
12,25,43.268916376646146
12,26,35.258371169700865
12,27,28.82657019444744
12,28,26.42995559821004
12,29,27.82114484631539
12,30,37.16509703008993
12,31,43.48860085993795
12,32,60.49296700685355
12,33,53.45352020520018
12,34,44.881326233015805
12,35,40.74378765725008
12,36,38.882655782122704
12,37,41.629209195230345
12,38,45.49814397630872
12,39,52.29230715255969
12,40,69.21225485969535
12,41,62.64369966704649
12,42,57.5590844889396
12,43,52.82933334572255
12,44,52.59949578149759
12,45,54.930134401457636
12,46,56.80643620718068
12,47,61.211108329574834
12,48,79.10562958953199
12,49,75.58308301890465
12,50,69.80094456656498
12,51,67.85355452633651
12,52,67.82049536582674
12,53,70.76177893997736
12,54,70.3624335327897
12,55,71.29328560681657
12,56,89.89663097801206
12,57,84.32004229936994
12,58,78.73473423695542
12,59,79.58096785316218
12,60,80.19198849585034
12,61,79.81295131245798
12,62,80.61146446623965
12,63,81.83489608693327
12,64,111.13767267442887
12,65,106.38094705044357
12,66,99.46910290755544
12,67,92.75836032274388
12,68,86.82735186619374
12,69,79.57159732420023
12,70,76.25439240918458
12,71,70.95220667399661
12,72,89.22182569286718
12,73,100.64483819872589
12,74,104.22098737402872
12,75,104.90619210921867
12,76,107.74574917858301
12,77,101.5853350789626
12,78,109.15361871473233
12,79,109.45266727924025
12,80,106.4100686362416
12,81,101.51021419696497
12,82,92.87178412682141
12,83,81.09112540937346
12,84,101.13565696757229
12,85,96.8336678347011
12,86,92.83320627941288
12,87,93.70049109170077
12,88,101.01965484502882
12,89,102.4500021834458
12,90,78.53333138246892
12,91,79.89974731225489
12,92,84.86626952475707
12,93,85.58758755557889
12,94,88.12777291241437
12,95,90.70255512304264
12,96,89.11685289175313
12,97,87.79804705545307
12,98,77.88227062479898
12,99,72.4361942909275
12,100,65.81641975149566
12,101,59.44876402470036
12,102,55.86737946912666
12,103,53.81510525807118
12,104,51.350624800773744
12,105,48.40845136632478
12,106,46.26246209246596
12,107,43.97012633440546
12,108,42.497601270465125
12,109,40.538252123239275
12,110,39.20743227369577
12,111,87.42460027736773
12,112,86.98160187768845
12,114,89.77413045498471
12,115,91.56967896301961
12,116,127.17785087448301
12,118,124.95046616528997
12,120,124.69728913982243
12,123,125.51401008291495
12,124,129.49615509532367
12,125,134.1535032380562
13,14,13.710888599294487
13,15,25.767942691661325
13,16,59.46937179378476
13,17,48.4162326711687
13,18,37.70764290060815
13,19,27.384041913613334
13,20,17.731307232873498
13,21,13.64924104834568
13,22,19.491982309801628
13,23,29.56368697651822
13,24,64.19127654282582
13,25,53.06504030282008
13,26,44.095985081742015
13,27,36.054992663408456
13,28,29.89981900188952
13,29,27.348489373867924
13,30,31.914505104497575
13,31,36.043041896408866
13,32,69.93443574474132
13,33,62.237372672813116
13,34,52.716333272206235
13,35,46.85073430401422
13,36,41.80007290749923
13,37,41.620451898259695
13,38,42.46512217075939
13,39,47.0602509340765
13,40,77.81867000731567
13,41,70.79003966375362
13,42,64.6419994114048
13,43,58.212003370692344
13,44,55.636369127560585
13,45,55.48570643286335
13,46,54.65944691949192
13,47,57.0663264326015
13,48,87.05102586344061
13,49,82.76050515568839
13,50,75.78387343899085
13,51,72.07354156608264
13,52,70.38950693838724
13,53,71.75875980155665
13,54,68.982670198874
13,55,68.08008965259317
13,56,97.23478215194608
13,57,90.97364311411096
13,58,84.4134725124541
13,59,83.72117059808004
13,60,82.87324419573457
13,61,81.07327194121613
13,62,80.20189476272597
13,63,79.90178497830846
13,64,121.10323684709282
13,65,116.54808019190831
13,66,109.80628857661583
13,67,103.0148991242694
13,68,96.92793595380819
13,69,89.24673221034605
13,70,85.3421539587693
13,71,79.14144407481729
13,72,93.65782578385958
13,73,106.10816381847054
13,74,110.30970884906846
13,75,111.8354120247038
13,76,114.53127550111809
13,77,108.74192346476885
13,78,115.3814900725703
13,79,115.27375745893706
13,80,112.11437638676924
13,81,107.50801521286041
13,82,99.3787067255567
13,83,87.51596542442267
13,84,105.39454686723155
13,85,100.56650214118056
13,86,96.1977646102593
13,87,97.34905506945499
13,88,105.58124694471593
13,89,107.93678740875332
13,90,77.39484244827399
13,91,78.9993697609143
13,92,84.45611664747297
13,93,86.1013765390981
13,94,88.95847833317487
13,95,92.149349841657
13,96,90.76897472863688
13,97,89.56389524039679
13,98,84.18962886105226
13,99,78.94252491941727
13,100,72.6020427112853
13,101,66.50043068173416
13,102,63.06823938797998
13,103,61.02848098101539
13,104,58.75077357322714
13,105,56.019395010379
13,106,54.030315968128605
13,107,51.74433587654648
13,108,50.364342096660444
13,109,48.133942652684674
13,110,46.87418150148823
13,111,94.43332209294424
13,112,93.45764143828868
13,114,95.19462086934719
13,115,96.26051428721621
13,116,132.34865457836477
13,118,129.44556549302004
13,120,128.44769526350217
13,123,127.2069727369432
13,124,131.02046015773263
13,125,135.5272008439306
14,15,12.305022118294412
14,16,72.33067991696726
14,17,61.21460124694128
14,18,50.2467323564888
14,19,39.267755990242165
14,20,28.45395291496629
14,21,18.366288308138763
14,22,12.977939593314957
14,23,17.650132954369084
14,24,76.050852663844
14,25,64.42090025374108
14,26,54.567672399571286
14,27,45.30002456557889
14,28,36.15672949849392
14,29,29.843242923197394
14,30,27.030039108541775
14,31,27.02033295984197
14,32,80.5705604606064
14,33,72.15576894346006
14,34,61.77795937989049
14,35,54.256876388694764
14,36,46.08073022173822
14,37,42.495558248253175
14,38,39.37206863002076
14,39,40.459421970201284
14,40,87.26159947019532
14,41,79.7612772024883
14,42,72.4712384966766
14,43,64.28818284131114
14,44,59.12125874042467
14,45,55.98963686689966
14,46,51.793307488320764
14,47,51.367472621681166
14,48,95.52740536011396
14,49,90.31762174988891
14,50,82.0082550354315
14,51,76.27479048391358
14,52,72.65419022636733
14,53,72.05862708597662
14,54,66.40961027830492
14,55,63.14523259869882
14,56,104.8116796048728
14,57,97.74697850573061
14,58,90.08305010731958
14,59,87.51886457599129
14,60,84.89649576999786
14,61,81.37306324447184
14,62,78.44640295348405
14,63,76.22516764512278
14,64,132.75551629048442
14,65,128.34395347199145
14,66,121.71106688842077
14,67,114.67541277596726
14,68,108.3268545051458
14,69,100.03142499622373
14,70,95.33810661473419
14,71,88.03096192653761
14,72,98.09024732428801
14,73,111.49871042144441
14,74,116.40180302173508
14,75,118.93022785426223
14,76,121.29840647531304
14,77,115.99650093390788
14,78,121.49969240674757
14,79,120.80533350738308
14,80,117.45849663478481
14,81,113.25026981438475
14,82,105.8571821707527
14,83,94.05437534408267
14,84,109.22780141267337
14,85,103.68716638502647
14,86,98.85159070256596
14,87,100.28202314670327
14,88,109.5205019133397
14,89,113.02180214016501
14,90,76.0152731272048
14,91,77.55896011715461
14,92,83.17401576837413
14,93,85.70392436074101
14,94,88.73555160382874
14,95,92.53410839508363
14,96,91.3403893370646
14,97,90.27688859918374
14,98,90.90952527948322
14,99,86.0664814039698
14,100,80.30013338362481
14,101,74.7652127462316
14,102,71.69414281735494
14,103,69.81348302035528
14,104,67.89468859154917
14,105,65.59804939000963
14,106,63.9558151180779
14,107,61.868395187414194
14,108,60.84598082086925
14,109,58.59114492605031
14,110,57.6840630433297
14,111,103.46406182620862
14,112,102.14454068604292
14,114,103.13352406614378
14,115,103.58949735334772
14,116,137.5506564430179
14,118,134.0845255339417
14,120,132.44180308307406
14,123,128.6798161533366
14,124,132.37848350132603
14,125,136.81148795356467
15,16,83.31566101757758
15,17,72.33048022782238
15,18,61.38597246627249
15,19,50.342964731053215
15,20,39.46724497501318
15,21,28.368069595396886
15,22,17.94078318607838
15,23,11.841011191677135
15,24,86.40139041981071
15,25,74.60018220728537
15,26,64.40795861931905
15,27,54.76558322414791
15,28,44.52087838150548
15,29,36.64580213718829
15,30,28.44146581541222
15,31,23.30650327652758
15,32,89.89321743175452
15,33,81.11628125387959
15,34,70.48084454468582
15,35,62.137417418983105
15,36,52.36415157408467
15,37,46.57865752173724
15,38,40.46101147640288
15,39,37.646863508537415
15,40,95.52545697842122
15,41,87.85681795525089
15,42,79.98234616647734
15,43,70.88875862582591
15,44,64.10592282159851
15,45,58.79122816123691
15,46,51.94641903301662
15,47,48.52170744916387
15,48,102.80249851340662
15,49,97.07582638656237
15,50,88.02288157161001
15,51,80.97900156475512
15,52,75.99746129201675
15,53,73.86137275921969
15,54,65.9554911838457
15,55,60.36975019835664
15,56,111.196761649077
15,57,103.72123660052674
15,58,95.4583562768089
15,59,91.55032933122212
15,60,87.56207294033328
15,61,82.59334456049378
15,62,77.99246005264092
15,63,73.97305359900346
15,64,141.76892179441947
15,65,137.63237296877793
15,66,131.2995827720652
15,67,124.262659950019
15,68,117.81953886939803
15,69,109.19342921918569
15,70,103.92113133905542
15,71,95.84724790895936
15,72,100.89922659144543
15,73,115.1506911722152
15,74,120.68327179270085
15,75,124.17172443482708
15,76,126.48299102091667
15,77,121.81421884053395
15,78,125.92857545839604
15,79,124.8776151505865
15,80,121.64342132151764
15,81,117.98261512298298
15,82,111.39746474346092
15,83,99.95235377041494
15,84,111.6145440756423
15,85,105.76339634460015
15,86,100.81940064461786
15,87,102.72767387490028
15,88,112.82568078550607
15,89,117.20848997263816
15,90,73.60575897032476
15,91,75.20508970517376
15,92,81.0727783987933
15,93,84.61584211697351
15,94,88.00934159615817
15,95,92.50083696436015
15,96,91.89813865457324
15,97,91.282113531579
15,98,96.0451666065816
15,99,91.53894654983682
15,100,86.24575256790222
15,101,81.2012233115465
15,102,78.42889820827763
15,103,76.6704972597257
15,104,75.05796095867953
15,105,73.13431382257743
15,106,71.78956458726336
15,107,69.88912169611592
15,108,69.1687462877316
15,109,66.93264945625666
15,110,66.36140461182309
15,111,109.82683943928731
15,112,108.21079222243887
15,114,108.5808476436384
15,115,108.54357837781271
15,116,140.37585607946863
15,118,136.27638585590776
15,120,133.95457769614302
15,123,127.93366486857094
15,124,131.46054646036532
15,125,135.75905095694083
16,17,11.51764014180112
16,18,22.8278223393143
16,19,34.45931657536557
16,20,45.616445706129184
16,21,58.354661122380165
16,22,71.23347514696613
16,23,83.45543358590099
16,24,13.189121325880157
16,25,17.621100728025244
16,26,26.8497508728214
16,27,36.39468137858278
16,28,48.665318912953985
16,29,58.33548437644799
16,30,73.57255862160494
16,31,83.06077510318636
16,32,25.102135712279598
16,33,27.390471632804374
16,34,32.15277231605214
16,35,40.70511792183646
16,36,52.85257976286202
16,37,63.25047384760315
16,38,74.04083998378361
16,39,84.77792132911412
16,40,37.362517341165855
16,41,36.51699134354848
16,42,40.900254015805466
16,43,48.103147835771864
16,44,58.47521831652511
16,45,69.15503730735942
16,46,79.39934340824894
16,47,88.74735886194168
16,48,49.13590223846945
16,49,51.36148440778321
16,50,54.353246349759154
16,51,62.193507813573866
16,52,69.69020686798984
16,53,78.33371707708251
16,54,86.9895989922269
16,55,93.91399709141793
16,56,61.58410674999343
16,57,61.086775871869
16,58,62.316432400566406
16,59,70.88257155471908
16,60,78.15476509428647
16,61,83.92310570010584
16,62,91.30011475313161
16,63,98.01117058115007
16,64,67.89210788005975
16,65,61.484214018287645
16,66,53.0896537671272
16,67,46.419776315433914
16,68,41.53549470267926
16,69,37.77234557698466
16,70,39.20360554496687
16,71,41.51167539812021
16,72,77.45789725487812
16,73,81.46078092187777
16,74,81.19552811275688
16,75,77.14622599215637
16,76,80.1944740446707
16,77,72.64555884384637
16,78,84.56967156937446
16,79,86.83117528034502
16,80,84.67817007068263
16,81,78.893473397489
16,82,68.83264234604354
16,83,59.90670638917096
16,84,87.77797611371669
16,85,86.44482552247698
16,86,84.76127339915998
16,87,84.11899418848233
16,88,85.85473195847432
16,89,82.37997044889934
16,90,93.88246273087019
16,91,93.56360194111785
16,92,95.22691734224985
16,93,91.74577571960307
16,94,92.28276514201652
16,95,91.67572887865228
16,96,89.43458141625071
16,97,87.94515725701332
16,98,58.43819077524082
16,99,53.56502580893131
16,100,47.910113841818834
16,101,43.060160050591236
16,102,40.78597514474494
16,103,40.14947465543774
16,104,38.43744602410381
16,105,36.76692023248758
16,106,35.815268770827224
16,107,35.83082137674397
16,108,36.01417973188309
16,109,37.83074147551776
16,110,38.27207390035787
16,111,67.59204741345357
16,112,71.03023738520234
16,114,80.2061674523945
16,115,85.85516817044605
16,116,107.64690123818549
16,118,109.59068538195964
16,120,113.59227826117854
16,123,123.6036342204376
16,124,128.27369126855734
16,125,133.5606742014425
17,18,11.353424872732681
17,19,23.01469662632015
17,20,34.193116084195445
17,21,46.952079547709765
17,22,59.923280652132355
17,23,72.31671624525092
17,24,18.18909862108971
17,25,13.584830993782468
17,26,18.44504191244569
17,27,26.404173506723165
17,28,38.0927051362714
17,29,47.505026304137154
17,30,62.71416989262987
17,31,72.21159555121285
17,32,28.713808414094746
17,33,26.770723232934632
17,34,26.89457848771227
17,35,33.219526166525064
17,36,43.83307273301171
17,37,53.7297719005245
17,38,64.0360367348071
17,39,74.69035844489487
17,40,40.59137138944643
17,41,37.23160277341158
17,42,38.4661218849401
17,43,42.73510389739572
17,44,51.428021222441565
17,45,61.131061673832164
17,46,70.41118742369356
17,47,79.43423567863904
17,48,52.53401072219058
17,49,52.63226850018037
17,50,52.80606824462339
17,51,58.280530111315045
17,52,64.31108982179906
17,53,72.06320148862973
17,54,79.2702008314567
17,55,85.50154761849707
17,56,64.96980932990516
17,57,62.573550678371355
17,58,61.56453832557279
17,59,68.27286358292542
17,60,74.16048544722824
17,61,78.80981642402263
17,62,85.01823464898031
17,63,90.92938144823843
17,64,78.43996471306119
17,65,72.25503208721055
17,66,63.94437740350664
17,67,56.70778315583344
17,68,51.06266366362816
17,69,45.35957573687652
17,70,44.74175580344189
17,71,44.08483486458104
17,72,78.091092968715
17,73,83.93211439287842
17,74,84.656237770764
17,75,81.76368648958791
17,76,84.36280911870385
17,77,76.82298514810103
17,78,88.24302682435724
17,79,89.73036931406753
17,80,86.92087306843642
17,81,81.03385552116725
17,82,70.9730626912101
17,83,60.61702147447339
17,84,88.63695962179722
17,85,86.11850836363297
17,86,83.48961037384254
17,87,82.89579289583115
17,88,85.99497790067825
17,89,83.8572152544851
17,90,89.27607829878815
17,91,88.9985625466935
17,92,91.02861086393122
17,93,88.03189022336552
17,94,88.69532939650819
17,95,88.53686817326653
17,96,85.94818453689575
17,97,84.15820214229987
17,98,60.176580179942896
17,99,55.09389944321377
17,100,49.110198092302404
17,101,43.7036386444258
17,102,41.03306220725288
17,103,40.055246148790154
17,104,38.07726988651718
17,105,35.99940890896591
17,106,34.70505606458362
17,107,34.126017423018475
17,108,34.04954187888455
17,109,35.126664429345105
17,110,35.26987712843544
17,111,72.17586966103288
17,112,74.79775618866974
17,114,82.75983030303864
17,115,87.64994981846284
17,116,111.49977618053707
17,118,112.71909178235406
17,120,115.97909846836582
17,123,123.79609393624267
17,124,128.48313009590336
17,125,133.81776824816015
18,19,11.664690375174235
18,20,22.855347003588488
18,21,35.60904384525855
18,22,48.621289914861414
18,23,61.128934244439996
18,24,26.991658595520363
18,25,17.342920905362288
18,26,14.205049091982488
18,27,17.74365981173315
18,28,27.92705234003929
18,29,36.830897444895065
18,30,51.86105245237673
18,31,61.28147614532751
18,32,35.09930699322712
18,33,29.945009627973896
18,34,25.197680079398676
18,35,27.783478641139318
18,36,35.668178113868436
18,37,44.62789870971625
18,38,54.17362660709793
18,39,64.5783529072006
18,40,45.650038310974296
18,41,40.38158026969169
18,42,38.49740361618902
18,43,39.23580751455691
18,44,45.496258027877204
18,45,53.71176164117362
18,46,61.66741244235464
18,47,70.14651411540459
18,48,57.077060927773736
18,49,55.3040524053414
18,50,52.78417264680806
18,51,55.58423546049207
18,52,59.82010012331222
18,53,66.3984121965036
18,54,71.84411422054544
18,55,77.15673099761497
18,56,69.07994170541731
18,57,65.05260093174046
18,58,61.96833590976969
18,59,66.6048758493927
18,60,70.88087544715668
18,61,74.19124189130274
18,62,79.02794237912097
18,63,83.95494827771225
18,64,88.56228130423546
18,65,82.60125726393943
18,66,74.43136699649185
18,67,66.83048374104933
18,68,60.686834138700156
18,69,53.681644337983386
18,70,51.478624937626414
18,71,48.363707990441206
18,72,78.98345799411936
18,73,86.51280628140373
18,74,88.17901082830255
18,75,86.44214621169816
18,76,88.66493827777319
18,77,81.32326149817555
18,78,91.95910347294763
18,79,92.73341232623255
18,80,89.41979137199101
18,81,83.60095336541036
18,82,73.80088088301707
18,83,62.44398558615491
18,84,89.59498257506874
18,85,86.00122286211904
18,86,82.52878610137714
18,87,82.07410400146529
18,88,86.53389713932981
18,89,85.73312666302122
18,90,84.72992305683844
18,91,84.463004943061
18,92,86.82598973196318
18,93,84.38414023652183
18,94,85.20106672304247
18,95,85.54972322861045
18,96,82.73785520451703
18,97,80.74991123328174
18,98,62.63273528580203
18,99,57.521517769783756
18,100,51.48719989839431
18,101,45.87541584683996
18,102,43.036600575325714
18,103,41.83425317408617
18,104,39.798594285709605
18,105,37.57919997536668
18,106,36.14862923828364
18,107,35.114758448366864
18,108,34.91470367727028
18,109,35.202838954632696
18,110,35.16773525701036
18,111,77.23868650517987
18,112,79.14842218215992
18,114,85.98287342937527
18,115,90.13670756674978
18,116,115.02072925020302
18,118,115.54816025735461
18,120,118.09499873611595
18,123,123.695046494462
18,124,128.37964942605797
18,125,133.74581956289956
19,20,11.258531562129843
19,21,23.959527323699852
19,22,37.012637868759796
19,23,49.663443649041
19,24,37.356699868673225
19,25,26.053141072361527
19,26,17.824692623911734
19,27,13.442504764476762
19,28,18.67540922230653
19,29,26.268806350278652
19,30,40.839994706373254
19,31,50.11387523463886
19,32,43.5760769250225
19,33,36.4629893362978
19,34,28.174420382437795
19,35,26.080057050562928
19,36,29.219418901727867
19,37,36.31404403995419
19,38,44.53656736069659
19,39,54.474034130148986
19,40,52.63393530644142
19,41,46.06016790764865
19,42,41.52006601124518
19,43,38.527884962926464
19,44,41.44073656491695
19,45,47.38796605556114
19,46,53.412792817688796
19,47,61.058289206824746
19,48,63.227668697952105
19,49,59.85004075189333
19,50,54.87671841790205
19,51,54.776157288683244
19,52,56.84010693345999
19,53,61.85251247055161
19,54,65.06410045989928
19,55,69.16572532031321
19,56,74.5414061168592
19,57,69.10884651016015
19,58,64.1223734274267
19,59,66.49783065786094
19,60,68.92097747087644
19,61,70.6550317630494
19,62,73.82215756600351
19,63,77.51977462298969
19,64,99.12803609345511
19,65,93.35661902997217
19,66,85.31233631395607
19,67,77.43652212697044
19,68,70.93813250948163
19,69,63.01150836779174
19,70,59.61541495445179
19,71,54.59170554086186
19,72,81.21117168089357
19,73,90.2338312643829
19,74,92.77047719309975
19,75,92.13576033612145
19,76,93.96929666793442
19,77,86.91635866371719
19,78,96.67217679932014
19,79,96.74939223257283
19,80,92.99343738026457
19,81,87.33483285081681
19,82,77.97222260393966
19,83,65.96117399129363
19,84,91.66968953779877
19,85,87.04238670780177
19,86,82.76321259146907
19,87,82.45846375644504
19,88,88.22170521927666
19,89,88.75998184171544
19,90,81.20468446030984
19,91,80.91786409806667
19,92,83.57245240066126
19,93,81.75562967225345
19,94,82.70726498943154
19,95,83.58953825314221
19,96,80.57961909498418
19,97,78.41504009212191
19,98,66.7546847040227
19,99,61.79117109823833
19,100,55.962172847157554
19,101,50.45624960009278
19,102,47.65000531752172
19,103,46.34113976999141
19,104,44.411770942894925
19,105,42.26275557975747
19,106,40.858049612901524
19,107,39.54207922462712
19,108,39.297550152057546
19,109,38.8718012682951
19,110,38.722117399343546
19,111,83.6457319323186
19,112,84.91474850620581
19,114,90.65173121559559
19,115,94.0674681477716
19,116,119.35798536323937
19,118,119.23755416394619
19,120,121.09174273950399
19,123,124.41318559299094
19,124,129.0699917140176
19,125,134.44318065941204
20,21,12.804308912836454
20,22,25.903663981396353
20,23,38.665602233990214
20,24,48.28011624071363
20,25,36.55783014366177
20,26,26.94518867104039
20,27,18.683253637969408
20,28,15.334402039890126
20,29,18.68393086310392
20,30,31.395470076388836
20,31,40.01048275675251
20,32,53.491115716813596
20,33,45.49947298725612
20,34,35.66557508063082
20,35,30.362830913576705
20,36,28.04474914460289
20,37,31.787164048356868
20,38,37.46847777373943
20,39,46.2218806205535
20,40,61.4562508258868
20,41,54.233858932361095
20,42,48.09461559090415
20,43,42.36750589068299
20,44,41.842810364791916
20,45,44.79794226789809
20,46,48.035777996828074
20,47,54.16741653994243
20,48,71.22291505701891
20,49,66.81467489248476
20,50,60.13455132745528
20,51,57.573595607444865
20,52,57.47006919220304
20,53,60.66163497714756
20,54,61.19309908224389
20,55,63.56540591760408
20,56,81.8305093721206
20,57,75.47753152211646
20,58,69.13629616640215
20,59,69.51618857933397
20,60,70.12051155171062
20,61,70.16144804008412
20,62,71.44910138056558
20,63,73.59619316406072
20,64,109.30841538728443
20,65,103.81335413754202
20,66,96.02365838613102
20,67,88.14863229845328
20,68,81.52329242743082
20,69,73.16090226376612
20,70,69.0632981358435
20,71,62.86815990097062
20,72,84.92831079076055
20,73,95.31898549382217
20,74,98.6297072976278
20,75,99.00027300513673
20,76,100.69555427158788
20,77,94.05295110069862
20,78,102.74423238214898
20,79,102.34265509154451
20,80,98.40992870077713
20,81,93.05291740621104
20,82,84.23869478425527
20,83,71.99460095643006
20,84,95.35734355856731
20,85,90.0391192186673
20,86,85.23558784542185
20,87,85.24328297383164
20,88,92.1849492812795
20,89,93.8637224864941
20,90,78.78343536234586
20,91,78.69636706010407
20,92,81.87875875436552
20,93,80.97749993578228
20,94,82.26378295364573
20,95,83.8334755680248
20,96,80.93480688711524
20,97,78.80403747095573
20,98,72.54350803370376
20,99,67.70191611045041
20,100,62.02209391494214
20,101,56.602851847935696
20,102,53.79254134633772
20,103,52.354511873006345
20,104,50.49040824195793
20,105,48.36532713503126
20,106,46.94266548240898
20,107,45.38428586124161
20,108,44.98754064001051
20,109,43.9420315983813
20,110,43.608267336699335
20,111,89.91004076626656
20,112,90.50247983324576
20,114,95.03627346514666
20,115,97.67618716129338
20,116,124.32390213989484
20,118,123.42256681660767
20,120,124.45129303404214
20,123,125.61171320725146
20,124,130.13254226962698
20,125,135.39204892414355
21,22,13.235634512464944
21,23,26.311382097986478
21,24,60.34737442167618
21,25,48.281617017310545
21,26,37.854904992151056
21,27,27.981133171816168
21,28,18.525876263211075
21,29,14.12341169728257
21,30,21.04622855552384
21,31,28.5157668105488
21,32,64.46529649173215
21,33,55.74654536957244
21,34,44.859308950930654
21,35,37.23595394157816
21,36,29.874928136226103
21,37,28.897069258473344
21,38,30.382503107023446
21,39,37.09225659489836
21,40,71.24901572931465
21,41,63.475379400439344
21,42,55.92591730127956
21,43,47.79994651103071
21,44,43.72978442828076
21,45,43.022482951875546
21,46,42.568663417439254
21,47,46.58826234308324
21,48,80.09362291875476
21,49,74.6163495070131
21,50,66.28493674453664
21,51,61.2008362817505
21,52,58.72553360454583
21,53,59.701377317429774
21,54,57.04281588058699
21,55,57.330179519153255
21,56,89.83890574478774
21,57,82.52212153022954
21,58,74.80843603303978
21,59,73.00893272173174
21,60,71.60078832898438
21,61,69.78543365119019
21,62,68.8621358907802
21,63,69.18788099847863
21,64,121.16541290490584
21,65,115.80548111906256
21,66,108.10475817471699
21,67,100.02632982005107
21,68,93.17534430240002
21,69,84.25417554422948
21,70,79.41795413267482
21,71,72.09005052784097
21,72,90.05702104524111
21,73,101.49495639974644
21,74,105.50939886538606
21,75,106.83607672032355
21,76,108.13459075252057
21,77,101.87465104638548
21,78,109.62551303223071
21,79,108.58289317122228
21,80,104.32247768217188
21,81,99.24981600852348
21,82,91.08151959960631
21,83,78.72302427287363
21,84,99.95919160548128
21,85,93.7644578812737
21,86,88.30503014758308
21,87,88.46338602278047
21,88,96.46908568715129
21,89,99.38357380872344
21,90,78.0808343535532
21,91,77.92411177057538
21,92,81.26813066415976
21,93,81.11804861270853
21,94,82.4836405504471
21,95,84.58869029419373
21,96,81.58850505530958
21,97,79.36313557231374
21,98,79.81500989886543
21,99,75.32260183477776
21,100,70.1144096546329
21,101,65.1146313574818
21,102,62.53717936181054
21,103,61.148556649545306
21,104,59.51936335318795
21,105,57.64230879682421
21,106,56.38798310429847
21,107,54.81571811230433
21,108,54.49048983121267
21,109,53.11667165633313
21,110,52.80339821711766
21,111,98.91926740712161
21,112,99.02526931649416
21,114,102.60169239050593
21,115,104.55589996092439
21,116,130.57915142499783
21,118,129.1197056682815
21,120,129.50491890926003
21,123,128.31665650350172
21,124,132.7504769547768
21,125,137.95723526742992
22,23,13.269299759174073
22,24,72.77435934120963
22,25,60.55434016783019
22,26,49.78250441956756
22,27,39.44803426208774
22,28,28.100795114160693
22,29,19.584903333870695
22,30,14.53088265516635
22,31,17.461631334512578
22,32,75.90621801557585
22,33,66.74997285441673
22,34,55.44276310142686
22,35,46.5861257852267
22,36,36.294940350214794
22,37,31.12345370565127
22,38,27.191016814398175
22,39,29.593800649284333
22,40,81.56816488346107
22,41,73.51445654045914
22,42,65.09664280558631
22,43,55.48113416513353
22,44,48.739852626406496
22,45,44.53377610095737
22,46,39.89888112920354
22,47,40.53552798790917
22,48,89.38604982287261
22,49,83.16105046654152
22,50,73.683276112009
22,51,66.61762913294848
22,52,62.07808612122937
22,53,60.83464816156744
22,54,54.83943556038616
22,55,52.37468292325137
22,56,98.18469733138993
22,57,90.21126987837094
22,58,81.53109229862864
22,59,77.84485903857873
22,60,74.55131888004033
22,61,70.83632721634919
22,62,67.61754638883622
22,63,65.77603197882357
22,64,132.54413878189322
22,65,127.43318474495437
22,66,119.98142063796698
22,67,111.8661115585873
22,68,104.89416227375493
22,69,95.59226447171251
22,70,90.13091046580745
22,71,81.89960577356248
22,72,94.79865533843883
22,73,107.25996877896968
22,74,111.98655188853506
22,75,114.33874000654187
22,76,115.44592719585566
22,77,109.7601986298776
22,78,116.20919891819938
22,79,114.66265419635148
22,80,110.3289263150536
22,81,105.73595424327762
22,82,98.38329430126512
22,83,86.23775684076367
22,84,104.2272932401217
22,85,97.43262168556116
22,86,91.59220511230463
22,87,92.12027434148943
22,88,101.16761491177341
22,89,105.21493856964574
22,90,76.8680304224766
22,91,76.70501219257598
22,92,80.26882337020604
22,93,81.08598206958902
22,94,82.69805255262932
22,95,85.48906009576653
22,96,82.78290842568741
22,97,80.77509228751254
22,98,86.98088972261017
22,99,82.82595814700367
22,100,78.06774263898063
22,101,73.49189520877724
22,102,71.14530492800274
22,103,69.81029143994768
22,104,68.42213635589232
22,105,66.81248926630388
22,106,65.75122833588438
22,107,64.22618347444255
22,108,64.02683100291556
22,109,62.45103738850502
22,110,62.26239586068741
22,111,107.22877378991912
22,112,106.88405039777636
22,114,109.57257582540328
22,115,110.8837883702993
22,116,135.85303940787244
22,118,133.7290839566436
22,120,133.38531098075848
22,123,129.77071561351082
22,124,134.0575233423482
22,125,139.15324667535478
23,24,84.80142893318275
23,25,72.57666552506626
23,26,61.73198216638114
23,27,51.38505998655426
23,28,39.6856655885871
23,29,30.37825216693114
23,30,18.573302332831755
23,31,12.045057663717142
23,32,87.12732722929056
23,33,77.77306607764194
23,34,66.45570868144272
23,35,57.077570445738466
23,36,45.58256962503663
23,37,38.12347373920357
23,38,30.308858786581208
23,39,26.86976449105428
23,40,91.82405855769727
23,41,83.71951743600617
23,42,74.9076767956165
23,43,64.60201241930405
23,44,56.30746289446473
23,45,49.61783834946194
23,46,41.59022201445011
23,47,38.090791600589974
23,48,98.62314586320743
23,49,92.00284385883633
23,50,81.91241895124311
23,51,73.57252409114659
23,52,67.56841232255044
23,53,64.52162693651704
23,54,55.71990839897025
23,55,50.212611211082965
23,56,106.49586460190608
23,57,98.21254741558742
23,58,89.02673348431846
23,59,83.95478823513801
23,60,79.15054705845166
23,61,73.75014317367703
23,62,68.5069265408389
23,63,64.41175926119895
23,64,142.67428477677126
23,65,137.9451748648494
23,66,130.92082567200026
23,67,122.9737038144601
23,68,116.00971541684405
23,69,106.54197775552471
23,70,100.61332994708015
23,71,91.74458006003258
23,72,98.85701235502906
23,73,112.32484447425922
23,74,117.74577834129336
23,75,121.14663108478166
23,76,122.33206720803443
23,77,117.38274999660909
23,78,122.21747391240352
23,79,120.37348041103945
23,80,116.26679760246387
23,81,112.3223886673094
23,82,105.87234382856481
23,83,94.2055907516805
23,84,107.9936994687289
23,85,100.9782599738277
23,86,95.1103557264465
23,87,96.25086712362538
23,88,106.25972036571588
23,89,111.22963730638847
23,90,74.91548037866018
23,91,74.92181836525174
23,92,78.89126198587941
23,93,80.95386372963294
23,94,83.06854542213395
23,95,86.71836191653047
23,96,84.7900727090981
23,97,83.36104531131527
23,98,93.63598335356838
23,99,89.75457310896648
23,100,85.35582955945458
23,101,81.1434513110756
23,102,78.98269482519409
23,103,77.67568548727702
23,104,76.50094733573358
23,105,75.13355241621088
23,106,74.25108294517071
23,107,72.78937320923062
23,108,72.71063277557766
23,109,70.99371970211038
23,110,70.96352888328147
23,111,114.03213846183017
23,112,113.23143369027031
23,114,115.03333037162217
23,115,115.72049451310171
23,116,139.74477446270822
23,118,136.80361443485904
23,120,135.60177650803024
23,123,129.57860541775165
23,124,133.62872831762647
23,125,138.51981677218126
24,25,12.403511076512531
24,26,23.62440169194541
24,27,34.35593323874826
24,28,47.0778664304326
24,29,57.174233051211345
24,30,72.49170788553539
24,31,82.52675972889556
24,32,12.633360375517421
24,33,16.402020079217436
24,34,24.302716303415703
24,35,34.52906775333695
24,36,48.083697439204734
24,37,59.05605495492395
24,38,70.68349041997715
24,39,81.96956035624177
24,40,25.226442111324346
24,41,24.532760623125046
24,42,30.089001942433672
24,43,39.13217085275561
24,44,50.820218620951806
24,45,62.530925442187296
24,46,74.1326450629451
24,47,84.43430324575057
24,48,37.542583107450525
24,49,39.36953462771374
24,50,42.92787998889512
24,51,51.87035379018602
24,52,60.35689730947043
24,53,69.68618281785943
24,54,79.9290215003593
24,55,88.18144111334533
24,56,50.14662683713926
24,57,49.18965838832757
24,58,50.57913222467357
24,59,59.77075930108931
24,60,67.8583434462392
24,61,74.65160261471955
24,62,83.03351607790596
24,63,90.82487530502408
24,64,67.56781086000147
24,65,60.077302720189074
24,66,50.254626590993766
24,67,41.04764049748206
24,68,34.36151284530544
24,69,27.622698884444407
24,70,27.61567833587883
24,71,29.433751791398983
24,72,72.14955676368707
24,73,74.36491454244998
24,74,73.58023888041933
24,75,68.94032466680092
24,76,70.36241028864251
24,77,62.03438158157554
24,78,75.74024980866999
24,79,77.16049835667283
24,80,73.95744248569893
24,81,67.55931155646105
24,82,57.13136014942365
24,83,47.99153821111638
24,84,80.29563162367415
24,85,78.0006301887427
24,86,75.6873535961471
24,87,74.01152619434613
24,88,74.74471756959622
24,89,71.10736932476429
24,90,93.8049973629414
24,91,92.07628025809848
24,92,91.85771498494033
24,93,86.69070075377076
24,94,85.8556559084786
24,95,84.02474230897518
24,96,80.5780016354375
24,97,78.42680753154782
24,98,51.84101991018216
24,99,48.10852960013066
24,100,44.2961281759795
24,101,41.437185485917894
24,102,40.67637811604385
24,103,41.10438000071445
24,104,40.54793122275358
24,105,40.356039814284465
24,106,40.604933991062865
24,107,41.584800739464264
24,108,43.132582248870726
24,109,45.55717144551711
24,110,47.04872297220383
24,111,72.66175289535072
24,112,77.17828393401757
24,114,87.88246645444207
24,115,94.10465352900131
24,116,103.50692114370138
24,118,107.15070117447179
24,120,112.68496131682463
24,123,122.7631199574139
24,124,127.99903063070568
24,125,133.9260281068164
25,26,11.23704961015268
25,27,21.958175801725453
25,28,34.687027115478145
25,29,44.77644314139831
25,30,60.11938733162877
25,31,70.21018645942223
25,32,18.06798565538366
25,33,13.706477873712114
25,34,14.73707583146473
25,35,23.53100114843809
25,36,36.43446010605099
25,37,47.26569453560964
25,38,58.69739588012195
25,39,69.99240864899959
25,40,28.92314622826284
25,41,24.36120854538774
25,42,25.19160396767101
25,43,30.763752059751234
25,44,41.0421492318114
25,45,52.045049675762804
25,46,62.93622900288468
25,47,73.0255743148893
25,48,40.946534555550826
25,49,39.89682464525871
25,50,39.61844318175105
25,51,45.68157847188963
25,52,52.59747439220281
25,53,61.096352833122964
25,54,69.95443905368785
25,55,77.57204221054867
25,56,53.298683362916805
25,57,49.93063804408367
25,58,48.41110384032187
25,59,55.32124239891984
25,60,61.79815836839726
25,61,67.31943147764811
25,62,74.5050440294377
25,63,81.50035786207998
25,64,78.1248921239293
25,65,71.12461103456144
25,66,61.795408784982655
25,67,52.59978867036344
25,68,45.54806898665203
25,69,37.23239083935121
25,70,34.5615344806107
25,71,31.98113097238197
25,72,71.04220651824961
25,73,75.53902730777364
25,74,76.01273683017827
25,75,72.91426114598241
25,76,74.01583293713891
25,77,65.92234649277076
25,78,78.57702229127608
25,79,79.14706666237925
25,80,75.31051030757413
25,81,68.93102034095394
25,82,58.638408320199375
25,83,47.722885421455295
25,84,79.56866170277154
25,85,75.94564822136192
25,86,72.57273964061451
25,87,71.06510487307303
25,88,73.58593190724869
25,89,71.62103672804935
25,90,87.18742581643343
25,91,85.39187264672438
25,92,85.4552442085756
25,93,80.74148615798711
25,94,80.04231677594952
25,95,78.73235318451384
25,96,74.96144836653932
25,97,72.54136539927013
25,98,52.12388821668539
25,99,48.067888483014904
25,100,43.791823085390014
25,101,40.27158304010296
25,102,39.10460670816592
25,103,39.21550639938814
25,104,38.458094633719526
25,105,37.98984440606008
25,106,38.04564478634844
25,107,38.605263772104585
25,108,40.13218697434018
25,109,42.013068020735695
25,110,43.462556881199674
25,111,75.93213253939888
25,112,79.64029764649075
25,114,89.2286823868301
25,115,94.75008475068745
25,116,106.08160621572748
25,118,108.82748316501556
25,120,113.51053809167054
25,123,121.17806897985645
25,124,126.44795523845151
25,125,132.44720469219203
26,27,10.751546614761539
26,28,23.46307098427068
26,29,33.55270077742218
26,30,48.901331732970164
26,31,59.09067903282379
26,32,26.886204213312283
26,33,18.939327340318393
26,34,11.213039055844588
26,35,14.847954955472693
26,36,26.065581507343524
26,37,36.60286302658659
26,38,47.77996359623118
26,39,59.094664003073305
26,40,35.26951337714386
26,41,28.527758366161272
26,42,24.801630239280676
26,43,25.325022319310253
26,44,33.04340717685131
26,45,42.87767457520602
26,46,52.840885164086416
26,47,62.68303585650735
26,48,46.129168063372525
26,49,42.82381864247433
26,50,39.052737840147024
26,51,41.69613551447428
26,52,46.568288252693584
26,53,53.91277196566093
26,54,61.12747520687092
26,55,68.03471058629238
26,56,57.68064942791919
26,57,52.429725476133456
26,58,48.353642159864144
26,59,52.6982426869808
26,60,57.30605282372193
26,61,61.374604125788956
26,62,67.17984056732136
26,63,73.28142985120768
26,64,88.11771342928147
26,65,81.44286559605483
26,66,72.42351809322815
26,67,63.1789088658927
26,68,55.89988768115941
26,69,46.73078579157512
26,70,42.55712039621352
26,71,37.20295572407576
26,72,71.53307618851682
26,73,77.84779963105204
26,74,79.3625095939125
26,75,77.57775597475288
26,76,78.29957228206943
26,77,70.54144291811622
26,78,82.14428653322845
26,79,81.92715469829659
26,80,77.5597654035138
26,81,71.31683510678106
26,82,61.43843772086741
26,83,49.45065089907774
26,84,80.06446703071076
26,85,75.22416374877704
26,86,70.87363299122457
26,87,69.4991294791151
26,88,73.59012619493231
26,89,73.18542689766181
26,90,82.31837174592211
26,91,80.37902987151652
26,92,80.59710064981776
26,93,76.30706744973007
26,94,75.66216521100374
26,95,74.8239103907377
26,96,70.710684520282
26,97,68.01629917186858
26,98,54.452863916473405
26,99,50.39501272739187
26,100,46.09140207997495
26,101,42.37011893173317
26,102,41.03122225626018
26,103,40.91323365984191
26,104,40.1100482323524
26,105,39.52134636741278
26,106,39.467326997686946
26,107,39.64420452263997
26,108,41.10617243083849
26,109,42.36173463208796
26,110,43.732262976120424
26,111,80.71831334411486
26,112,83.74973228607207
26,114,92.31693450589933
26,115,97.18199681045452
26,116,109.29653814048616
26,118,111.33412287001703
26,120,115.31053236659285
26,123,120.72429134429416
26,124,126.01462004266136
26,125,132.07216501076925
27,28,12.736840143846116
27,29,22.82367453752567
27,30,38.27476929230315
27,31,48.608784331083214
27,32,36.95773892782482
27,33,28.055328199906107
27,34,17.268745596814032
27,35,12.799459217797596
27,36,17.975793089830425
27,37,27.43549735045001
27,38,37.95436214396829
27,39,49.23254335723839
27,40,43.88305305815778
27,41,36.22846398207511
27,42,29.75139899029183
27,43,25.2491166759113
27,44,28.58958224507027
27,45,36.11655909590437
27,46,44.400198399900795
27,47,53.750077525984004
27,48,53.66054968540483
27,49,48.87096243552702
27,50,42.474641724245586
27,51,41.60501673434819
27,52,43.88059213532215
27,53,49.51328260362263
27,54,54.40747247241475
27,55,60.24747728264844
27,56,64.3447183671613
27,57,57.78522760129366
27,58,51.7180820144565
27,59,53.4582039604129
27,60,55.947762509362455
27,61,58.27439238752173
27,62,62.299134967605646
27,63,67.18838780256813
27,64,98.10637259272775
27,65,91.70064678602685
27,66,82.92709418094407
27,67,73.72537590413805
27,68,66.36291844788026
27,69,56.81587147801083
27,70,51.89912724077729
27,71,45.06949434572466
27,72,74.50149831377925
27,73,82.37025382873026
27,74,84.75312640919607
27,75,84.0688433969635
27,76,84.5230051153013
27,77,77.1454010717355
27,78,87.71694102446435
27,79,86.87196356447396
27,80,82.13939264470176
27,81,76.12107915157729
27,82,66.78770242379444
27,83,54.28867316341402
27,84,82.98370964081671
27,85,77.15755118396713
27,86,71.9967030302438
27,87,70.80149092503328
27,88,76.27229905712225
27,89,77.2579395801205
27,90,79.45808184685131
27,91,77.51377756660594
27,92,78.03789739779407
27,93,74.38368491938552
27,94,73.88525969611953
27,95,73.61061819224585
27,96,69.26380281579947
27,97,66.34435807773816
27,98,59.483314474181924
27,99,55.50068426848784
27,100,51.23696823928538
27,101,47.40045389786965
27,102,45.89139753696501
27,103,45.52091157367695
27,104,44.63868082878874
27,105,43.87009125393361
27,106,43.630629725767335
27,107,43.389624353290436
27,108,44.588302466696305
27,109,45.15499793511461
27,110,46.26866205100329
27,111,86.52297884706846
27,112,88.8717105762475
27,114,96.3273100659726
27,115,100.50117717454623
27,116,114.10622140557118
27,118,115.41473190677883
27,120,118.6347469597769
27,123,121.92295050192833
27,124,127.15386902111854
27,125,133.17970577593815
28,29,10.124836446896296
28,30,25.686034741153197
28,31,36.31578466186266
28,32,48.958058006863666
28,33,39.52643743961229
28,34,27.828243813261448
28,35,19.130438728557944
28,36,12.967209708640674
28,37,17.882008800813196
28,38,26.555567335256775
28,39,37.64045204144303
28,40,54.52938214628733
28,41,46.331992429827245
28,42,38.02551122471487
28,43,29.548382485853462
28,44,26.96035646985674
28,45,30.01482858634781
28,46,35.088490017358474
28,47,43.456699130268696
28,48,63.110537162874984
28,49,57.03118145754073
28,50,48.3848920333982
28,51,43.84873042569806
28,52,42.82858668890368
28,53,45.84991922531172
28,54,47.296046937206
28,55,51.46948134853334
28,56,72.7211985221743
28,57,64.98168337004005
28,58,57.08621363504278
28,59,55.91791920934605
28,60,55.81249999637086
28,61,55.88404681511384
28,62,57.44541967181698
28,63,60.58965909681811
28,64,110.06881335389501
28,65,103.8954821928239
28,66,95.32635439629433
28,67,86.09201480269195
28,68,78.61512414721902
28,69,68.6754547288991
28,70,63.07403703430629
28,71,55.02807294759928
28,72,79.11667904809609
28,73,88.39700999652956
28,74,91.64248629995475
28,75,92.09919954156688
28,76,92.17903537111393
28,77,85.27080981733279
28,78,94.68752241540768
28,79,93.1290801307993
28,80,88.02043840773278
28,81,82.32726762878725
28,82,73.75302798901426
28,83,61.06999691713856
28,84,87.20872715703136
28,85,80.3242691263431
28,86,74.31727401805907
28,87,73.2975102970488
28,88,80.15102957573134
28,89,82.65021920733028
28,90,77.57171816038289
28,91,75.5218834763186
28,92,76.2287289707063
28,93,73.30225718727186
28,94,72.87657199324823
28,95,73.20411362448682
28,96,68.6022040946102
28,97,65.45258523165498
28,98,66.58528210871499
28,99,62.873697655793634
28,100,58.91761236353337
28,101,55.25672217470754
28,102,53.75903521001151
28,103,53.24641952285938
28,104,52.41543376130413
28,105,51.6264370821783
28,106,51.31740149182815
28,107,50.781971131668485
28,108,51.77537427451131
28,109,51.719194506703204
28,110,52.6142923275836
28,111,94.68673740770619
28,112,96.38745379522057
28,114,102.71063576213488
28,115,106.14502064374034
28,116,120.24977361091535
28,118,120.8611069778828
28,120,123.32253055838761
28,123,124.15639137775939
28,124,129.31597043894288
28,125,135.30648172331175
29,30,15.713822339190783
29,31,26.527946658092343
29,32,58.799819969859165
29,33,49.205002118097596
29,34,37.37853008312843
29,35,27.80320896886783
29,36,17.14582393098833
29,37,15.0133080960417
29,38,19.147391920340237
29,39,29.192543779679724
29,40,63.70222199107493
29,41,55.345869696387844
29,42,46.3791588152477
29,43,36.393125065260165
29,44,30.393492868332487
29,45,29.139864350504908
29,46,30.088135290822212
29,47,36.62985218684801
29,48,71.52844415090598
29,49,64.85313013666008
29,50,55.146433923786624
29,51,48.532534199778674
29,52,45.22378048207447
29,53,45.954223775830094
29,54,44.06433583308896
29,55,46.16978904609626
29,56,80.40884209284884
29,57,72.10213871447682
29,58,63.281300807086446
29,59,60.26225495467894
29,60,58.27461192367589
29,61,56.49844900493565
29,62,55.86839757335293
29,63,57.208620939997594
29,64,119.39890921722503
29,65,113.45574256481166
29,66,105.11158158963383
29,67,95.96450288825157
29,68,88.47591043984725
29,69,78.4004614811406
29,70,72.46857787689922
29,71,63.84376623491797
29,72,83.64541161664167
29,73,93.9596269819049
29,74,97.82333846083174
29,75,99.11593876105903
29,76,99.09067300503656
29,77,92.62028111745694
29,78,101.01258664544338
29,79,99.05690395394703
29,80,93.85749411242597
29,81,88.52031389719413
29,82,80.58350473392206
29,83,68.01967565147349
29,84,91.54785537295717
29,85,84.11109370265768
29,86,77.69296829696323
29,87,76.9621061843985
29,88,84.78445857905419
29,89,88.2901556678743
29,90,76.74589244763385
29,91,74.76859981912725
29,92,75.79078009879888
29,93,73.68353306754936
29,94,73.48935463822988
29,95,74.42872901452193
29,96,69.93596300553499
29,97,66.83213616261821
29,98,73.09687050010969
29,99,69.53661448992607
29,100,65.72977663632307
29,101,62.14371356842693
29,102,60.61481949465806
29,103,59.97849073291284
29,104,59.156614632806985
29,105,58.326187125447895
29,106,57.948378704741366
29,107,57.21240456403747
29,108,58.02367822665874
29,109,57.54499242880261
29,110,58.2632600398607
29,111,101.07237249041258
29,112,102.25174028012859
29,114,107.63995203434997
29,115,110.4737041001272
29,116,125.43534154975195
29,118,125.403512685558
29,120,127.176893464183
29,123,126.11517745275864
29,124,131.14695150645986
29,125,137.03185303631525
30,31,11.362954368641173
30,32,73.34204171210156
30,33,63.53862166463316
30,34,51.72780216366127
30,35,41.5025542524518
30,36,28.608463309460586
30,37,20.104764157433912
30,38,13.027564982994749
30,39,16.709578384181242
30,40,77.05786433970499
30,41,68.59743206327546
30,42,58.98570154813476
30,43,47.733356756831405
30,44,38.55156005318588
30,45,31.91506624715374
30,46,25.65307409752903
30,47,27.016700514832312
30,48,83.58603637606954
30,49,76.20518114325107
30,50,65.36772567837778
30,51,56.393553762632706
30,52,50.291461953803115
30,53,47.71438861664177
30,54,40.677356677403026
30,55,38.64597967143282
30,56,91.2243547073976
30,57,82.28298729694681
30,58,72.4522769548494
30,59,67.03361081868
30,60,62.47742967541729
30,61,57.99625421974075
30,62,54.009871326568614
30,63,52.20026866581171
30,64,133.0091201367047
30,65,127.42977835743764
30,66,119.47389458185104
30,67,110.4382440815449
30,68,102.92129751007427
30,69,92.60694337817205
30,70,86.10876162858688
30,71,76.64839977339155
30,72,89.60555843425189
30,73,101.20611087173145
30,74,105.9537276702633
30,75,108.53328452124124
30,76,108.36128477011592
30,77,102.69585997355804
30,78,109.31443660413268
30,79,106.78456163182793
30,80,101.58922726557621
30,81,96.94451181631993
30,82,90.14426836792332
30,83,78.06928583610795
30,84,96.94746657114737
30,85,88.83381522350699
30,86,82.00097242854515
30,87,81.80920572317929
30,88,90.95655396862908
30,89,95.88587736485692
30,90,75.32607348478466
30,91,73.2773747168321
30,92,74.49425321927069
30,93,73.59568234889393
30,94,73.70895487427268
30,95,75.55928197459382
30,96,71.5027404644364
30,97,68.73740083710346
30,98,82.22284097415
30,99,79.03376193954605
30,100,75.67441463429205
30,101,72.47076155101198
30,102,71.09771687944628
30,103,70.4305254959602
30,104,69.78764898326364
30,105,69.12413012385271
30,106,68.84194463747916
30,107,68.03460146564521
30,108,68.82400609153996
30,109,67.98684645585281
30,110,68.69897453596312
30,111,110.75785682226153
30,112,111.34660776813072
30,114,115.62935214021792
30,115,117.703441904062
30,116,131.83462731553863
30,118,130.94807921491437
30,120,131.80494081650622
30,123,127.81925915917401
30,124,132.6712208855994
30,125,138.42191069631514
31,32,83.23912841229681
31,33,73.47697817115504
31,34,61.90542295777537
31,35,51.747980883250534
31,36,38.91437215311528
31,37,29.6964800135345
31,38,19.837226488941532
31,39,14.882610612902415
31,40,86.55272800990438
31,41,78.21319952543735
31,42,68.6638284418056
31,43,57.408984789123586
31,44,47.66826529324053
31,45,39.41431129076067
31,46,30.057110344469198
31,47,26.212392937145687
31,48,92.41203784553417
31,49,85.02455044772083
31,50,74.08014994912885
31,51,64.52602412691779
31,52,57.51094388938199
31,53,53.52666956866242
31,54,43.91576642645291
31,55,38.41372372267698
31,56,99.43476384669316
31,57,90.51614644457347
31,58,80.59961144547036
31,59,74.37097081092281
31,60,68.71412358290489
31,61,62.76917430137448
31,62,56.96311675713072
31,63,52.81772705867188
31,64,141.0065920095128
31,65,135.89424883864365
31,66,128.46907974399346
31,67,119.83456061211534
31,68,112.47827302791494
31,69,102.29891164005565
31,70,95.65013331743732
31,71,85.95546459797663
31,72,93.29612398628191
31,73,106.02537777294437
31,74,111.41321958666694
31,75,114.92312344487787
31,76,115.15747070704757
31,77,110.21633872171847
31,78,115.21916745388859
31,79,112.66453459849551
31,80,107.93441133107964
31,81,103.95576527150637
31,82,97.91748001158717
31,83,86.36828914724602
31,84,100.84992640093088
31,85,92.86740297895703
31,86,86.2837450893272
31,87,86.89300303373814
31,88,96.92823748480969
31,89,102.49266040686025
31,90,72.90645595940983
31,91,71.30544808260802
31,92,73.30978840738702
31,93,73.90333737109584
31,94,74.82697158065841
31,95,77.72838506541595
31,96,74.79898022435401
31,97,72.84708358477162
31,98,88.25562163865985
31,99,85.08646116381331
31,100,81.71810723953288
31,101,78.51367334162506
31,102,77.072118013861
31,103,76.26755298395571
31,104,75.63831858066402
31,105,74.96630065439489
31,106,74.65973281810942
31,107,73.73816992971487
31,108,74.41198120748315
31,109,73.28151216239806
31,110,73.94010860789426
31,111,115.0804250607229
31,112,115.09470031367064
31,114,118.3394594715459
31,115,119.76230782244406
31,116,135.09517374338424
31,118,133.22022956146859
31,120,133.0846657385561
31,123,127.05987102516083
31,124,131.61200941120586
31,125,137.0792773139822
32,33,10.042628619071632
32,34,21.932927134073143
32,35,32.605208756698275
32,36,46.604719132934896
32,37,57.47106342119966
32,38,69.3697322540928
32,39,80.46708389478403
32,40,12.612235082327865
32,41,13.11656422778048
32,42,21.562114221471397
32,43,33.15639331351057
32,44,45.87990652353978
32,45,58.10931906940894
32,46,70.65333877750042
32,47,81.22402719747407
32,48,25.063585067037955
32,49,26.963128928049905
32,50,32.12412213529605
32,51,42.839348409610636
32,52,52.48707555842585
32,53,62.450548529974355
32,54,74.19881085698155
32,55,83.28758644211874
32,56,37.686589543244516
32,57,36.655629374645244
32,58,38.935586918036556
32,59,49.19863455045138
32,60,58.225568926331086
32,61,65.91106412045573
32,62,75.35526538346257
32,63,83.9965432014109
32,64,66.43934053620946
32,65,58.63586584437809
32,66,48.54080426104227
32,67,37.87479781328936
32,68,29.912823173300968
32,69,19.875138672414472
32,70,16.536928637073895
32,71,16.820542358375715
32,72,63.75639131527326
32,73,64.35310573122182
32,74,63.2177783168536
32,75,58.36217142320677
32,76,58.65893870674485
32,77,49.99939903582872
32,78,64.52281134022614
32,79,65.3535786234268
32,80,61.62241009378053
32,81,55.02373133727633
32,82,44.528649299789876
32,83,35.67741542589226
32,84,70.00587020334528
32,85,67.25369311075124
32,86,64.82525992560966
32,87,62.620020211425405
32,88,62.54324149738278
32,89,58.62514412806429
32,90,90.59828543374809
32,91,87.67670685002304
32,92,85.78647061205191
32,93,79.23305428186482
32,94,77.3709049517048
32,95,74.58377037008266
32,96,70.68450667237394
32,97,68.48669140840325
32,98,42.80984354098247
32,99,40.32363781132251
32,100,38.578450042137575
32,101,37.99279602370701
32,102,38.828216847135586
32,103,40.271689621695415
32,104,40.89430992957517
32,105,42.142225019714466
32,106,43.50465308033817
32,107,45.35383629489777
32,108,48.048122272078956
32,109,50.989868106401744
32,110,53.43923115266649
32,111,73.98670249188046
32,112,79.38566723999104
32,114,91.37982071085023
32,115,98.09600160009728
32,116,95.58831381753184
32,118,100.58656313125702
32,120,107.38978280738768
32,123,117.50375258234406
32,124,123.19114062578873
32,125,129.63715805241588
33,34,12.055124834690336
33,35,22.6075019243432
33,36,36.58375896766401
33,37,47.43024925847997
33,38,59.33519545378554
33,39,70.48927877689678
33,40,16.385763696041277
33,41,10.666864969249596
33,42,13.819621599007272
33,43,23.856924944680518
33,44,36.29154767541423
33,45,48.387768761374836
33,46,60.760458032357356
33,47,71.35813479439244
33,48,27.879436094167904
33,49,26.205473550485397
33,50,27.090134923655587
33,51,35.55680104340065
33,52,44.277335698569765
33,53,53.8630765589951
33,54,64.90875005671964
33,55,73.7743583767863
33,56,40.000646341126235
33,57,36.26185378362122
33,58,35.378380296513846
33,59,43.659895484117875
33,60,51.488635079044506
33,61,58.326381817411246
33,62,67.03265063759584
33,63,75.26285069900162
33,64,75.27795031128598
33,65,67.87695716216122
33,66,58.1973180922711
33,67,47.742996764819026
33,68,39.765541970726
33,69,29.2095482168648
33,70,23.86520983671345
33,71,18.72701906365752
33,72,62.44912663259211
33,73,64.99813515356074
33,74,65.00749145673952
33,75,61.59146322732664
33,76,61.45418833911183
33,77,53.024026948574324
33,78,66.59099583702199
33,79,66.52814250057087
33,80,62.07207738116053
33,81,55.418449674496266
33,82,45.01568459966451
33,83,34.13229393202708
33,84,68.82988306053137
33,85,64.69518652276408
33,86,61.15073601476772
33,87,58.935253015791815
33,88,60.468445613991435
33,89,58.17124089065222
33,90,85.2051593138785
33,91,82.03103567593064
33,92,80.10598025335746
33,93,73.66698147206382
33,94,71.706725188916
33,95,69.18069987489488
33,96,64.76169106578757
33,97,62.18973887073626
33,98,42.63764442735345
33,99,39.949900118748076
33,100,37.95323552230837
33,101,36.978159391446155
33,102,37.62609503313306
33,103,38.917414362589625
33,104,39.49666524375418
33,105,40.67258989482028
33,106,41.997525007582695
33,107,43.620858752991026
33,108,46.40462997231832
33,109,49.002262436811414
33,110,51.4981585733444
33,111,77.04937285307615
33,112,81.84455145778216
33,114,93.03357071437753
33,115,99.23673920798481
33,116,97.6880831990171
33,118,102.01290041418115
33,120,108.18823369958362
33,123,116.26447849859983
33,124,122.03016285497766
33,125,128.59077832040148
34,35,10.775670605710243
34,36,24.793485731057434
34,37,35.778829650324774
34,38,47.7167883666315
34,39,59.15933170558624
34,40,26.98441884643242
34,41,19.076377231136725
34,42,13.64063894068514
34,43,16.06686712753774
34,44,26.68355215195919
34,45,38.22917428059023
34,46,50.02105861912409
34,47,60.694996770184716
34,48,36.81709981439908
34,49,32.311914091658174
34,50,27.935118179107015
34,51,31.56454813262044
34,52,37.90471557835168
34,53,46.39169036951567
34,54,55.77542093550597
34,55,64.12231053424678
34,56,47.79995755604981
34,57,41.740307246830355
34,58,37.25115287559675
34,59,42.054288223532076
34,60,47.58984662798769
34,61,52.81309986126235
34,62,59.97407167308333
34,63,67.33230667538074
34,64,86.43135037377928
34,65,79.35738882662835
34,66,69.9443526983222
34,67,59.715669761153364
34,68,51.792354784170506
34,69,41.1913876592735
34,70,35.35070043926321
34,71,28.011428208285686
34,72,65.47550485249324
34,73,70.29504942284521
34,74,71.49397779228642
34,75,69.5187476643541
34,76,69.04321447518511
34,77,60.99823842272971
34,78,73.3846111621969
34,79,72.46852710440943
34,80,67.36072914644923
34,81,60.80197657656842
34,82,50.87043886068593
34,83,38.560248875933866
34,84,72.09876241192148
34,85,66.51052323051185
34,86,61.68621127797649
34,87,59.517382160803194
34,88,62.9502191411702
34,89,62.57326415493686
34,90,81.61470244441885
34,91,78.40554272647356
34,92,76.80988751811356
34,93,70.90873030364487
34,94,69.01646772661698
34,95,67.03329261034074
34,96,61.983418728383775
34,97,58.84839210858132
34,98,47.78394662085477
34,99,44.84384868678788
34,100,42.337103255469906
34,101,40.55968812243437
34,102,40.61487940863488
34,103,41.422096327180185
34,104,41.64823207902849
34,105,42.33403881306496
34,106,43.27216657735116
34,107,44.31793468615783
34,108,46.78293522027765
34,109,48.69224150138883
34,110,50.89016565834729
34,111,82.5830792413748
34,112,86.50313507085455
34,114,96.4021449595933
34,115,101.85316062323336
34,116,103.69005795069651
34,118,107.04942023771451
34,120,112.26574931096184
34,123,117.95331655393947
34,124,123.6778374733591
34,125,130.2242671791733
35,36,14.023583626214387
35,37,25.00900679709365
35,38,36.977196781158014
35,39,48.566731381166804
35,40,36.18077272229545
35,41,27.68967149797603
35,42,18.906763370248065
35,43,12.463031344436382
35,44,18.21313923734403
35,45,28.53948592251637
35,46,39.658575672192875
35,47,50.34141581236368
35,48,44.37467064839176
35,49,38.12268736795588
35,50,30.22976828678921
35,51,28.914970672590314
35,52,32.18892296033571
35,53,39.12059594846956
35,54,46.66289634758005
35,55,54.44219284636228
35,56,54.04798377892329
35,57,46.42974757439209
35,58,39.366166114735584
35,59,40.73396532593561
35,60,43.735034773974704
35,61,47.11057447818191
35,62,52.60844316199994
35,63,59.033729888362465
35,64,96.37382802552857
35,65,89.58008588896946
35,66,80.43934104231234
35,67,70.30031543004434
35,68,62.35131366197124
35,69,51.52267326945458
35,70,45.05571415726261
35,71,36.29701426416579
35,72,67.49253647483665
35,73,73.93991503173537
35,74,76.1073765864081
35,75,75.39730412995162
35,76,74.54960673133189
35,77,67.01058234360025
35,78,78.13676380357005
35,79,76.44185529636383
35,80,70.87011400448483
35,81,64.59974579524821
35,82,55.42702305188278
35,83,42.62654660094101
35,84,73.85538532172993
35,85,67.02496705244138
35,86,61.158553406559946
35,87,59.09339500735422
35,88,64.14452771181408
35,89,65.46411710259278
35,90,78.16524294842726
35,91,74.69078547508313
35,92,73.06246620968714
35,93,67.51590048488528
35,94,65.53949553893872
35,95,63.9836859106643
35,96,58.4328282042036
35,97,54.901112863698515
35,98,52.161140424036674
35,99,49.371998828449186
35,100,46.979235733445336
35,101,45.12283582988101
35,102,45.030788844385675
35,103,45.60938864114959
35,104,45.78925161809837
35,105,46.347854385771235
35,106,47.15843854487727
35,107,47.865823054918856
35,108,50.185113605823915
35,109,51.54398481628734
35,110,53.61134032116401
35,111,88.34553460153869
35,112,91.6633720285143
35,114,100.62081377694155
35,115,105.47321560899856
35,116,107.78853886211702
35,118,110.4936155539317
35,120,115.042934372046
35,123,118.51993575890198
35,124,124.24889317226634
35,125,130.83744798037867
36,37,11.076978037387452
36,38,23.088666977126397
36,39,35.04004258081367
36,40,49.30737501442103
36,41,40.66993221034223
36,42,30.704667403958993
36,43,19.546011480122974
36,44,14.087164922263437
36,45,18.34854736618566
36,46,26.95765100329954
36,47,37.48419434686173
36,48,56.116656078478016
36,49,48.65620002179489
36,50,38.297636900176514
36,51,31.738144865796947
36,52,29.921502981865338
36,53,33.23182903725415
36,54,36.64368347187146
36,55,43.02305469596183
36,56,64.38740173774667
36,57,55.56293568619679
36,58,46.373334250136054
36,59,43.70989155525609
36,60,43.019775325146576
36,61,43.30808288200438
36,62,45.668797418421455
36,63,50.17911564431103
36,64,109.63785738362967
36,65,103.13357910627477
36,66,94.25765671536574
36,67,84.22086164847707
36,68,76.26382095737307
36,69,65.2913992153373
36,70,58.41764914710379
36,71,48.80478983062737
36,72,72.930887133815
36,73,81.08802567340192
36,74,84.27738664755428
36,75,84.9231157990156
36,76,83.71591291540327
36,77,76.83159535972425
36,78,86.43424590856125
36,79,83.93046550675133
36,80,77.97537125544059
36,81,72.18168406925327
36,82,64.08133652419681
36,83,51.35453075561977
36,84,78.85902122484295
36,85,70.77210161304801
36,86,63.85817826686104
36,87,62.017600689829564
36,88,68.81221456388243
36,89,72.02985958672511
36,90,76.0841552076497
36,91,72.3983679269535
36,92,70.85602809633808
36,93,66.06108897837342
36,94,64.0844820841193
36,95,63.21752932425533
36,96,57.229262804299424
36,97,53.307793979258655
36,98,60.70930112307476
36,99,58.14830668247422
36,100,55.90969342964723
36,101,53.99291210121314
36,102,53.71037137591842
36,103,54.00065379618801
36,104,54.08368785912844
36,105,54.43379679206335
36,106,55.03182613373455
36,107,55.31857035789152
36,108,57.322958698531565
36,109,57.99609979414019
36,110,59.7783994884385
36,111,97.2122386568448
36,112,99.784416286197
36,114,107.49504591171087
36,115,111.56044482013758
36,116,114.85963112036404
36,118,116.72626180680868
36,120,120.38533656289434
36,123,121.09439271247825
36,124,126.74663460200473
36,125,133.3004779161698
37,38,12.121292458130958
37,39,24.262498785380327
37,40,59.457565144428514
37,41,50.83225999929266
37,42,40.51778099654073
37,43,28.416228704518876
37,44,18.46136261601765
37,45,14.182539789079371
37,46,17.33146672650902
37,47,27.14777289815754
37,48,65.23760151656528
37,49,57.19921126347671
37,50,45.80776586570841
37,51,36.63191450815268
37,52,31.37558275507157
37,53,31.053701053707368
37,54,29.764304707439745
37,55,34.10387508874809
37,56,72.44392332486515
37,57,63.040855131995116
37,58,52.84808406245205
37,59,47.681896193152554
37,60,44.28695961097556
37,61,41.901116382986125
37,62,41.23399807055516
37,63,43.590062715875476
37,64,119.70725468260608
37,65,113.4557593199263
37,66,104.84202732872195
37,67,94.90811013138428
37,68,86.95909576952701
37,69,75.88846923523643
37,70,68.69344726469706
37,71,58.554669784842154
37,72,77.12543776564874
37,73,86.38003453835908
37,74,90.29194093033102
37,75,91.95941294421165
37,76,90.56334992441491
37,77,84.2950034549628
37,78,92.54813164746342
37,79,89.51177278844878
37,80,83.44718135924575
37,81,78.1698287379006
37,82,71.02204903056689
37,83,58.70337160408669
37,84,82.5854920690954
37,85,73.75681211296029
37,86,66.29131197892873
37,87,64.77688686355057
37,88,72.76417695687205
37,89,77.28729819557788
37,90,74.70169487335883
37,91,70.80687397599453
37,92,69.23386756679564
37,93,65.1183157490372
37,94,63.188330471236235
37,95,62.930343338593346
37,96,56.92197259389381
37,97,52.98998431089094
37,98,67.41800358437135
37,99,65.11055333080698
37,100,63.12280932606543
37,101,61.34784753419424
37,102,61.057936799877616
37,103,61.23026288294289
37,104,61.34490170123607
37,105,61.679208823451
37,106,62.231686891416246
37,107,62.33695269657074
37,108,64.2092565101799
37,109,64.496885431408
37,110,66.16836837748163
37,111,104.22353994908642
37,112,106.31840613647442
37,114,113.19353322146195
37,115,116.70785342079931
37,116,119.7360873832068
37,118,120.99381296548366
37,120,124.0057887499128
37,123,122.55629436747179
37,124,128.1310031229024
37,125,134.64447239577368
38,39,12.59310579259237
38,40,71.15436350495337
38,41,62.58979416678894
38,42,52.2501091296908
38,43,40.0074045232087
38,44,28.88109389387746
38,45,19.894848512714614
38,46,12.833576025732572
38,47,17.955085935589583
38,48,76.32775045130865
38,49,68.09139782219255
38,50,56.30823536650538
38,51,45.84438072089742
38,52,38.50028181965475
38,53,34.96990097453773
38,54,27.91980448369792
38,55,27.87304124247599
38,56,82.8123520993226
38,57,73.18897030948663
38,58,62.550573358264856
38,59,55.76884788270421
38,60,50.30260390188757
38,61,45.4408571793735
38,62,41.39372922487983
38,63,40.52124395123788
38,64,130.51824146608297
38,65,124.59337277902775
38,66,116.31610321739585
38,67,106.62480103299637
38,68,98.75896850126315
38,69,87.74799191640666
38,70,80.43745805400303
38,71,70.07134762116573
38,72,83.26995441944109
38,73,93.72236147176565
38,74,98.3283478212947
38,75,100.9594248939914
38,76,99.67696994491834
38,77,94.05262860812569
38,78,100.86417729007344
38,79,97.54333886990044
38,80,91.64346970516263
38,81,86.95823256600465
38,82,80.67058053341265
38,83,68.84464787251903
38,84,88.64098205361303
38,85,79.48967510963784
38,86,71.86045069940178
38,87,70.93114488015561
38,88,79.96135631344043
38,89,85.49797919176376
38,90,74.20461319686181
38,91,70.46857941629686
38,92,69.35242014038737
38,93,66.49534036146393
38,94,65.04134613185342
38,95,65.73401125057725
38,96,60.309201732325924
38,97,56.789401692862235
38,98,76.03409862446956
38,99,73.78406806996975
38,100,71.7744460822987
38,101,69.90115843525889
38,102,69.44944455800122
38,103,69.41226392709162
38,104,69.44631843780957
38,105,69.63471825014317
38,106,70.04179752629827
38,107,69.8954429116307
38,108,71.51579897191704
38,109,71.36620347427007
38,110,72.82591260194823
38,111,111.53175128806988
38,112,113.0142349976193
38,114,118.80577862633977
38,115,121.64217922150009
38,116,126.02310893441717
38,118,126.40398811164559
38,120,128.50347092910195
38,123,124.79467259289605
38,124,130.1556287196383
38,125,136.4811979456099
39,40,81.71814513332059
39,41,73.3297849722921
39,42,63.121738130395
39,43,51.04618501348279
39,44,39.59659513219361
39,45,28.95643147439116
39,46,17.034691981727818
39,47,11.436130853300428
39,48,85.99875637978163
39,49,77.73995903967477
39,50,65.87727720186135
39,51,54.74830733606674
39,52,46.25273866216028
39,53,40.65882234301665
39,54,29.51599701254665
39,55,23.671503189872237
39,56,91.60708590242884
39,57,81.99996189248027
39,58,71.27118801211192
39,59,63.38595503243037
39,60,56.393204045181925
39,61,49.45607129643848
39,62,42.63518889437432
39,63,38.241290091440554
39,64,139.61419570042136
39,65,134.17347827185728
39,66,126.45456883329051
39,67,117.15440219482265
39,68,109.44432818081833
39,69,98.54916183438581
39,70,91.03411112369946
39,71,80.38640617533834
39,72,86.80643264373886
39,73,98.47618538246458
39,74,103.8407211741907
39,75,107.60349148194094
39,76,106.6613788733927
39,77,101.93814456597201
39,78,106.79371283287536
39,79,103.32808112247355
39,80,97.91238742112223
39,81,94.06796947218201
39,82,88.82393245381367
39,83,77.75829952639188
39,84,92.12428895651836
39,85,82.96439521504374
39,86,75.52919170698331
39,87,75.52381560853483
39,88,85.63832086469986
39,89,92.05050530596762
39,90,71.21686012958101
39,91,67.59595299399382
39,92,66.90210663886711
39,93,65.50703436866523
39,94,64.76999829143074
39,95,66.63604326175131
39,96,62.45493070046151
39,97,59.91372997126881
39,98,82.45692951909355
39,99,80.3306141292974
39,100,78.43570084868607
39,101,76.66706852603377
39,102,76.20354332321038
39,103,76.0547770874455
39,104,76.15070593276677
39,105,76.38535029926783
39,106,76.810076866721
39,107,76.57570379271085
39,108,78.13302524892369
39,109,77.70693350303925
39,110,79.16646795841139
39,111,116.82004803640211
39,112,117.77177658237724
39,114,122.61899160818285
39,115,124.84639130224745
39,116,129.16284796604828
39,118,128.57796703571577
39,120,129.71841466311454
39,123,123.62120379052149
39,124,128.7397993639707
39,125,134.85869013278813
40,41,8.701243809494171
40,42,19.44693167966397
40,43,32.31648263593201
40,44,45.02070930737832
40,45,57.117904599526895
40,46,70.18903253954277
40,47,80.70964022078623
40,48,12.632191819659264
40,49,15.371405354662057
40,50,24.03570169900731
40,51,36.897891528799974
40,52,47.620131059619524
40,53,57.98587727368367
40,54,71.15007821944474
40,55,80.9131006921781
40,56,25.20454902438449
40,57,24.466578460761735
40,58,28.773929030029343
40,59,40.56981999478579
40,60,50.71080167179734
40,61,59.37073864177422
40,62,69.93111168576057
40,63,79.38408177092984
40,64,66.71701893441997
40,65,58.91600397210237
40,66,49.11778897880553
40,67,37.86503305572785
40,68,29.5844028713175
40,69,17.7832664201587
40,70,9.340430420869277
40,71,4.625644684285565
40,72,56.743835895231875
40,73,55.08664981874814
40,74,53.40921360615195
40,75,48.23603670771754
40,76,47.04591155604698
40,77,37.99628911546838
40,78,53.55160473822101
40,79,53.6843737538756
40,80,49.364855910450835
40,81,42.55005475448324
40,82,32.01081904795809
40,83,24.11136143589108
40,84,60.479538886614456
40,85,57.35603880415182
40,86,54.97489281837558
40,87,52.145056407492945
40,88,50.80462895970606
40,89,46.3127103692685
40,90,89.189738948346
40,91,85.09972756946817
40,92,81.44218051758695
40,93,73.45278991870963
40,94,70.45952743962867
40,95,66.56462475051121
40,96,62.294515015499606
40,97,60.179673295182745
40,98,35.72658082948748
40,99,35.14930927031384
40,100,36.215043034725426
40,101,38.314572079990405
40,102,40.7307764648488
40,103,43.039408285510504
40,104,44.71123894550399
40,105,47.14237759970493
40,106,49.356144610047934
40,107,51.82579814699527
40,108,55.29375999684549
40,109,58.54656401298737
40,110,61.6575728535578
40,111,76.72462611113545
40,112,82.86344853223387
40,114,95.8817562306806
40,115,102.99133550235143
40,116,88.22203908891406
40,118,94.7306974239102
40,120,102.88390049283223
40,123,113.10619541723138
40,124,119.20766484712607
40,125,126.12809263994319
41,42,10.908298481189338
41,43,23.771550702935425
41,44,36.575598540940426
41,45,48.776428565747125
41,46,61.83615650305985
41,47,72.53456489164597
41,48,18.099715308738066
41,49,15.64012040738598
41,50,19.02099332004174
41,51,30.33674800873707
41,52,40.54856907924702
41,53,50.7841958788478
41,54,63.46372889700546
41,55,73.17064567470955
41,56,29.765948668277186
41,57,25.731085700441362
41,58,26.079077012816228
41,59,36.09938684456915
41,60,45.30817648975054
41,61,53.362571192346806
41,62,63.335136965945246
41,63,72.51896477783345
41,64,74.20187026806286
41,65,66.62310623676075
41,66,56.924221025375445
41,67,45.83247979387977
41,68,37.52059996764928
41,69,25.76240285802045
41,70,17.897417534461034
41,71,8.98347488883181
41,72,57.37059835971649
41,73,57.798659379083176
41,74,57.24368683175024
41,75,53.42608184021848
41,76,51.96995309552207
41,77,43.178808983161794
41,78,57.757626349211066
41,79,57.08292546382127
41,80,52.00694949544515
41,81,45.04075262473607
41,82,34.48582634293198
41,83,23.827564375055882
41,84,61.511520447353305
41,85,57.00691905973958
41,86,53.40866827922143
41,87,50.4491388229498
41,88,50.734546426998904
41,89,47.93415240126675
41,90,85.61083159678309
41,91,81.40982881838988
41,92,77.87285560112241
41,93,70.04561147300555
41,94,66.97861259066431
41,95,63.32485844574143
41,96,58.37140009649539
41,97,55.70787495511347
41,98,37.234529842232234
41,99,36.162340223169515
41,100,36.55630152233923
41,101,37.9062458554119
41,102,39.93705010779709
41,103,42.005595807766866
41,104,43.47936179996309
41,105,45.66653672688711
41,106,47.71222628568104
41,107,49.91116130347771
41,108,53.312737908948215
41,109,56.25854040023081
41,110,59.277161553792055
41,111,79.40452006635611
41,112,84.94118471617386
41,114,97.15917701785418
41,115,103.80423226838067
41,116,92.02635305550149
41,118,97.74338624234724
41,120,105.16681697205269
41,123,113.64815266762787
41,124,119.76733662868808
41,125,126.7256828061105
42,43,12.883152623333219
42,44,25.69788207942679
42,45,37.98911578093617
42,46,51.16167098497328
42,47,62.16366788140043
42,48,26.128628818312883
42,49,19.589209161599474
42,50,14.6774813558781
42,51,21.80274436651992
42,52,30.971782013813993
42,53,40.92860057818536
42,54,53.12603238208762
42,55,62.95915860514471
42,56,35.74980856127206
42,57,28.564177976165503
42,58,23.85441628973145
42,59,30.290799358653665
42,60,37.80990099661519
42,61,44.974255141587825
42,62,54.16316134479651
42,63,63.106117187449485
42,64,84.60897332015077
42,65,77.25155022643095
42,66,67.6960766795668
42,67,56.677941791739116
42,68,48.34785908568451
42,69,36.553977868353066
42,70,28.640741511808
42,71,18.40494293931296
42,72,59.02616130430292
42,73,61.40768118800721
42,74,62.02973756617754
42,75,59.71765835035515
42,76,57.58160178887551
42,77,49.22039683330757
42,78,62.618758632451424
42,79,60.80573762216797
42,80,54.756701130230745
42,81,47.779264005900544
42,82,37.79275923567969
42,83,25.14720157324141
42,84,62.83932558015393
42,85,56.495429625068894
42,86,51.277779847053985
42,87,47.97294690370211
42,88,50.10733098411346
42,89,49.50467810883204
42,90,82.31933283438674
42,91,77.71073611486028
42,92,73.91415741894008
42,93,66.04858436435775
42,94,62.568440025957145
42,95,58.99112374849333
42,96,52.898872382566736
42,97,49.3668535986539
42,98,40.951218999011544
42,99,39.857249741394135
42,100,40.078906641459945
42,101,40.999088679774
42,102,42.73284682869789
42,103,44.53952372690628
42,104,45.87742016847828
42,105,47.85527167824232
42,106,49.73764603058584
42,107,51.59871390501186
42,108,54.90817861266309
42,109,57.401187804927496
42,110,60.31098030985662
42,111,85.18602767961438
42,112,90.08818494368315
42,114,101.40133751285803
42,115,107.4880097214239
42,116,96.80349751078829
42,118,101.87949002444353
42,120,108.65843909172196
42,123,114.8863341759304
42,124,121.07758054556557
42,125,128.14623897131472
43,44,12.92139816430441
43,45,25.36517408753683
43,46,38.59555253758717
43,47,50.01137525059405
43,48,37.78347936217048
43,49,29.64506891378042
43,50,19.319025134428777
43,51,16.819011623757255
43,52,21.988621667592163
43,53,30.711782552814544
43,54,41.504019049450044
43,55,51.2875814112323
43,56,45.66910019388799
43,57,36.6607546046644
43,58,28.000559270225242
43,59,28.55224049524479
43,60,32.36414856351367
43,61,37.362377267060225
43,62,44.75219598267826
43,63,52.970151730443
43,64,96.7843439530404
43,65,89.67921888059495
43,66,80.30111607080069
43,67,69.42337796942327
43,68,61.11190838234766
43,69,49.364872334554846
43,70,41.51034339120605
43,71,30.964694896399546
43,72,63.2348392878951
43,73,67.77908091403795
43,74,69.60942882414572
43,75,68.82544227602449
43,76,66.30114083432142
43,77,58.6154625340034
43,78,70.40222536761938
43,79,67.62531172219934
43,80,60.94295744584437
43,81,54.33377686031189
43,82,45.47893021342608
43,83,32.44867716863501
43,84,66.8345255363813
43,85,58.8028050721411
43,86,52.033462862413
43,87,48.67816959892232
43,88,53.01215339552587
43,89,54.81019063601341
43,90,79.60002659065249
43,91,74.68296603408417
43,92,70.82313532985795
43,93,63.302010282855214
43,94,59.5687035401476
43,95,56.39771575860888
43,96,49.224037404820045
43,97,44.75953892947936
43,98,48.07762132377288
43,99,46.88786652700642
43,100,46.76021361236971
43,101,47.07317331660281
43,102,48.33342903093825
43,103,49.72947615192333
43,104,50.810172857390924
43,105,52.419697936700956
43,106,54.00444631250017
43,107,55.3920465848344
43,108,58.427302038647035
43,109,60.30404270227735
43,110,62.963569740606644
43,111,92.51094370020354
43,112,96.64592982702173
43,114,106.7957138072407
43,115,112.17900586502068
43,116,103.55605853200346
43,118,107.75359296679862
43,120,113.64522141949355
43,123,117.26590021908213
43,124,123.44214083091849
43,125,130.53454726113227
44,45,12.552547881526795
44,46,25.97058184861305
44,47,37.83804693995308
44,48,49.3100058694263
44,49,40.40346725567015
44,50,28.222512882245933
44,51,18.752482612610518
44,52,16.245104152604487
44,53,21.35268550875515
44,54,29.561929757796612
44,55,39.24789101517253
44,56,55.645183149227634
44,57,45.67221438914452
44,58,35.0013385323531
44,59,30.392941974152894
44,60,29.393868639533817
44,61,30.948967770209507
44,62,35.48728976740786
44,63,42.54628698116455
44,64,109.01779508985581
44,65,102.17435054651983
44,66,93.03719800398785
44,67,82.28480819837425
44,68,73.99976750301758
44,69,62.24229352977104
44,70,54.233043503657825
44,71,43.323447164167206
44,72,68.00637998612966
44,73,74.16144692750187
44,74,76.99852248855632
44,75,77.58285929802936
44,76,74.69960540238795
44,77,67.79272720760241
44,78,77.88111306488791
44,79,74.2611610704375
44,80,67.20548411053991
44,81,61.19379656804145
44,82,53.69383610805635
44,83,41.199655090423185
44,84,71.00204769561137
44,85,61.61044557373077
44,86,53.6553982135179
44,87,50.437834930220184
44,88,56.64143881828557
44,89,60.543811674374616
44,90,77.82522839572697
44,91,72.4924208488801
44,92,68.35520841100748
44,93,61.225177192547
44,94,57.18674568078815
44,95,54.458233183399635
44,96,46.449954462244364
44,97,41.27051936689474
44,98,56.01524302971303
44,99,55.00438970664281
44,100,54.92491666121189
44,101,55.07469158098709
44,102,56.10995601396027
44,103,57.23479748752666
44,104,58.21035178965575
44,105,59.62928969070176
44,106,61.03850305822576
44,107,62.08557962073747
44,108,64.90449605225548
44,109,66.25366779917877
44,110,68.72704305754316
44,111,100.78569039712582
44,112,104.30254752737484
44,114,113.45258303760993
44,115,118.19988174797676
44,116,109.83879142034074
44,118,113.32563346485534
44,120,118.47262356905324
44,123,119.51535060929956
44,124,125.66834473397593
44,125,132.78354156063642
45,46,13.684930961581369
45,47,25.79997427910583
45,48,60.51948044752022
45,49,51.35920423073553
45,50,38.694301874162136
45,51,26.8085629155821
45,52,18.822137433093886
45,53,16.947214848443444
45,54,18.631750176819722
45,55,27.341551544388416
45,56,65.69580831248811
45,57,55.37700952062608
45,58,43.977099912704986
45,59,36.29996844933516
45,60,31.179033660184505
45,61,28.33418575057672
45,62,28.358616743769584
45,63,33.00242329520709
45,64,120.23026419613834
45,65,113.72867195007973
45,66,104.95029547571782
45,67,94.43376373018972
45,68,86.22738537838617
45,69,74.52300667721565
45,70,66.36751224247438
45,71,55.19185810048
45,72,72.62416663096226
45,73,80.25013520792308
45,74,84.00057000129722
45,75,85.8654004042216
45,76,82.95974982207622
45,77,76.92913649511013
45,78,85.12621524165539
45,79,80.97183918168088
45,80,73.97027560599163
45,81,68.75411086752119
45,82,62.573722716736704
45,83,50.911312920540915
45,84,75.22304215604683
45,85,65.03216057083101
45,86,56.48456647483724
45,87,53.85531350456118
45,88,61.677374007950306
45,89,67.20307361022849
45,90,75.84744591912003
45,91,70.22264068017492
45,92,65.95771772299439
45,93,59.57447306892926
45,94,55.55720041136921
45,95,53.612848369648304
45,96,45.59390128329635
45,97,40.42601291528017
45,98,63.75749682414145
45,99,62.87093787947843
45,100,62.82193247269806
45,101,62.88230559963393
45,102,63.757361684435296
45,103,64.66413911660145
45,104,65.58519859750866
45,105,66.88953613006211
45,106,68.18572167690999
45,107,68.9829175898677
45,108,71.62964543658013
45,109,72.54384699656498
45,110,74.88895930381702
45,111,108.135736488607
45,112,111.081330240484
45,114,119.28015965178099
45,115,123.41940636872963
45,116,115.16847331294977
45,118,117.85319287029026
45,120,122.1885115189217
45,123,120.72609126272874
45,124,126.7860427690539
45,125,133.8523661226492
46,47,12.715176257814615
46,48,73.47045228444124
46,49,64.434771561345
46,50,51.83744362173519
46,51,39.57561988927728
46,52,30.216134836031575
46,53,24.19516481489838
46,54,15.115019523095162
46,55,17.441147067095443
46,56,78.24534590221627
46,57,67.98833970780693
46,58,56.54686570353483
46,59,47.724484323405
46,60,40.479434100508946
46,61,34.298798848871826
46,62,29.066178871128514
46,63,28.622823290946382
46,64,131.77983179367058
46,65,125.68374932192098
46,66,117.30727975194007
46,67,107.16381438622238
46,68,99.09092179048389
46,69,87.57311747206062
46,70,79.49617437849328
46,71,68.32206720656558
46,72,79.62627667131409
46,73,88.94834906470666
46,74,93.54405202796428
46,75,96.51240254861013
46,76,94.06346021993369
46,77,88.79937246627254
46,78,95.21909499712048
46,79,90.96407668056018
46,80,84.40972394678073
46,81,79.9625643443688
46,82,74.6843595679112
46,83,63.60677879270371
46,84,82.62224919807794
46,85,72.336051414079
46,86,63.85904955872184
46,87,62.24501302804237
46,88,71.34675712490953
46,89,77.85963108939337
46,90,74.58165210236976
46,91,69.246493463253
46,92,65.72595844265005
46,93,61.05879783927338
46,94,57.892745752271715
46,95,57.40652759280724
46,96,50.5496068005235
46,97,46.259487094871
46,98,73.50374589660338
46,99,72.38029476551871
46,100,71.89802266714722
46,101,71.47208593020564
46,102,71.94451758165327
46,103,72.49029184544334
46,104,73.18283165162835
46,105,74.16964712233924
46,106,75.19696449507437
46,107,75.62225453785744
46,108,77.91493214839554
46,109,78.29156631660081
46,110,80.35084914664753
46,111,115.21321777962882
46,112,117.38820354835407
46,114,124.28445941650122
46,115,127.64080235424657
46,116,122.32727045838936
46,118,123.79939056931615
46,120,126.92543092345525
46,123,122.9070438024982
46,124,128.6816771432084
46,125,135.48841536263606
47,48,83.43674723342363
47,49,74.65404989305692
47,50,62.341969064764235
47,51,50.12217460615711
47,52,40.41893452260069
47,53,33.08729826920902
47,54,19.9271421567521
47,55,12.240587138188312
47,56,87.61595053307877
47,57,77.63089900907633
47,58,66.45373531740857
47,59,57.118166284083344
47,60,48.780702657510034
47,61,40.60754529974981
47,62,32.337088512960214
47,63,27.01410968063278
47,64,140.13113361485833
47,65,134.59475281846096
47,66,126.85528956949081
47,67,117.2421716708155
47,68,109.39413274980681
47,69,98.13409176456202
47,70,90.02093838161379
47,71,78.76833361140936
47,72,82.92723910454957
47,73,93.76157170588272
47,74,99.18055655371431
47,75,103.32367046150938
47,76,101.5296007082222
47,77,97.23355911985281
47,78,101.49739919497772
47,79,97.30979809261568
47,80,91.50633221560713
47,81,88.00529773798308
47,82,83.71570230425327
47,83,73.42441910022049
47,84,86.303877860997
47,85,76.29365177548353
47,86,68.29019125464968
47,87,67.94672315049482
47,88,78.22485241338931
47,89,85.44091501224729
47,90,70.61772434712854
47,91,65.51755705696864
47,92,62.65064752913257
47,93,59.77692472393938
47,94,57.68072936778586
47,95,58.75992606336757
47,96,53.75218861429873
47,97,50.934292213180285
47,98,79.7534131730439
47,99,78.53792261179868
47,100,77.88041641237396
47,101,77.295912601375
47,102,77.59185640920369
47,103,77.9233497077007
47,104,78.57161806670014
47,105,79.48060375025075
47,106,80.43394719749624
47,107,80.6887813870385
47,108,82.83355168550831
47,109,82.86978936064989
47,110,84.8648200604279
47,111,119.19450205629
47,112,120.7457580778072
47,114,126.57573702059835
47,115,129.27822843936067
47,116,125.12782041268123
47,118,125.40721298506362
47,120,127.38824088466356
47,123,120.95106661938732
47,124,126.43007371519329
47,125,132.97308738217825
48,49,10.137825343983742
48,50,23.080342355637903
48,51,36.730642405176845
48,52,47.73307041978626
48,53,57.93594737233258
48,54,71.9518932365858
48,55,81.87292844230907
48,56,12.628504424115242
48,57,14.63909503327496
48,58,23.508415610458034
48,59,36.544220517947196
48,60,47.43229521403266
48,61,56.6849331713472
48,62,68.10072160243011
48,63,78.01428033170335
48,64,66.7223801509984
48,65,59.385988598657754
48,66,50.63654267629368
48,67,40.01920344113462
48,68,32.656008379288394
48,69,22.42941717417176
48,70,13.939211859829355
48,71,9.392486643942856
48,72,50.13817687265828
48,73,45.543880959593885
48,74,43.061913468525056
48,75,37.46238818355434
48,76,34.79512903491609
48,77,25.524580792689264
48,78,41.91598790187312
48,79,41.56926968783661
48,80,37.12457539982389
48,81,30.458186452139774
48,82,20.312349809867133
48,83,16.345502711271042
48,84,51.0472977992316
48,85,48.20068267064669
48,86,46.56411525015192
48,87,43.477753506309085
48,88,40.40175073301999
48,89,34.666474027661465
48,90,88.43174248781789
48,91,83.40746480863535
48,92,78.17997673476532
48,93,69.02012111701805
48,94,65.14129589872584
48,95,60.283380590087646
48,96,56.32342350723307
48,97,54.853415346071
48,98,30.165202308508523
48,99,31.98200606108266
48,100,36.020901277652214
48,101,40.58776767504696
48,102,44.250218747452394
48,103,47.16321030968254
48,104,49.641318540651746
48,105,52.954842809247225
48,106,55.787525349356414
48,107,58.71516343632616
48,108,62.70331073742161
48,109,66.18258580324334
48,110,69.78826446482739
48,111,78.62585915091307
48,112,85.39285438945075
48,114,99.24885188903734
48,115,106.69940047861537
48,116,79.7752225363919
48,118,87.81564810239564
48,120,97.31169179208395
48,123,107.91003048533905
48,124,114.3321499723122
48,125,121.62201341506686
49,50,13.126171848406413
49,51,26.776142593572683
49,52,37.846619990081905
49,53,48.08484443264391
49,54,62.35371531136463
49,55,72.70485373856793
49,56,16.369034513205275
49,57,10.09717196863375
49,58,14.136180449384916
49,59,26.928929118382047
49,60,37.793514288138155
49,61,47.20977011373736
49,62,58.65028312428444
49,63,68.82319505944803
49,64,76.55707987433071
49,65,69.23523033306915
49,66,60.260303403796215
49,67,49.28764740221177
49,68,41.46807014990541
49,69,30.185137561497914
49,70,20.98905745355879
49,71,10.764130061615901
49,72,51.01807425283626
49,73,48.16932401089452
49,74,46.96679660519731
49,75,43.11578564122539
49,76,39.06494099663708
49,77,30.071412942510328
49,78,45.57846816739765
49,79,43.465840307574545
49,80,37.103472890403275
49,81,29.66406557955325
49,82,19.030227750008052
49,83,8.775620108987443
49,84,51.02503892655606
49,85,45.716032253022505
49,86,42.009632675437956
49,87,37.83422278369707
49,88,35.99396180668659
49,89,32.55097046010728
49,90,86.00885169149643
49,91,80.37230830269888
49,92,74.49084764562045
49,93,64.78068485711155
49,94,60.04551029610517
49,95,54.69943943966662
49,96,49.12093381391577
49,97,46.57927766688987
49,98,32.45378726625098
49,99,34.35263522940065
49,100,38.38946664797559
49,101,42.71358039758671
49,102,46.25993445232609
49,103,49.07065472297685
49,104,51.509196535109396
49,105,54.742539004289895
49,106,57.51596248575124
49,107,60.2462966613983
49,108,64.25795905341393
49,109,67.46150826340651
49,110,71.03813839257067
49,111,84.53930656273441
49,112,90.80760969640977
49,114,104.00740471973224
49,115,111.03984635373617
49,116,84.40324482055651
49,118,92.03809747967473
49,120,101.10552554889537
49,123,109.59430740415485
49,124,116.17981334233247
49,125,123.67355479714175
50,51,13.757759204633079
50,52,24.889870986156822
50,53,35.24463435895555
50,54,49.52794675127068
50,55,60.256397181015224
50,56,27.700713897803023
50,57,17.665645521414415
50,58,9.373238583957537
50,59,17.078448887533956
50,60,26.747590427380054
50,61,35.744835368533394
50,62,46.75331116924587
50,63,56.97143287304918
50,64,88.40034898783045
50,65,81.21166534764059
50,66,72.13330124516688
50,67,61.0432683547651
50,68,52.90819874753374
50,69,41.07301946871634
50,70,31.926093414168154
50,71,20.307511337352008
50,72,53.78566420415762
50,73,53.94573706944155
50,74,54.443983159801085
50,75,52.691498077461894
50,76,48.30678851071983
50,77,40.331576532349146
50,78,53.482853949907735
50,79,50.02193526941784
50,80,42.528227109391835
50,81,35.355756610278476
50,82,26.299738401840504
50,83,13.265002845121883
50,84,53.73906013995659
50,85,45.8513471390395
50,86,39.6479394541294
50,87,34.79366684294621
50,88,36.005560837658635
50,89,36.266045059631594
50,90,82.250892279439
50,91,76.13289177226606
50,92,69.91990640867053
50,93,60.09053907764383
50,94,54.71122470114034
50,95,49.32922287600146
50,96,41.85386333956224
50,97,37.835670834839455
50,98,37.796437561526
50,99,39.13766168622127
50,100,42.387711010022
50,101,45.83995625541789
50,102,48.908450646703905
50,103,51.383807375895785
50,104,53.59189949922171
50,105,56.52312494088735
50,106,59.075472447805474
50,107,61.431068312154466
50,108,65.31303799417506
50,109,68.05197999335398
50,110,71.48131378561881
50,111,90.8575985744812
50,112,96.3569280541776
50,114,108.48937866557574
50,115,114.8819814523913
50,116,91.17799312300245
50,118,97.7736698771528
50,120,105.8665350794853
50,123,111.59313761795072
50,124,118.2316058224545
50,125,125.81936141407104
51,52,11.167406111546695
51,53,21.556119571776797
51,54,36.03190711376895
51,55,47.29215620239295
51,56,39.973697378317766
51,57,29.144625856668753
51,58,17.291367828981798
51,59,12.175931384210896
51,60,16.285163350894184
51,61,23.797723673720792
51,62,33.97891983387983
51,63,44.25344880845252
51,64,101.43317133592522
51,65,94.46474746652991
51,66,85.49671058048926
51,67,74.46523016839916
51,68,66.25266113446607
51,69,54.30647824377592
51,70,45.29500264118524
51,71,33.60889351200535
51,72,58.38014226966996
51,73,60.91210774144588
51,74,62.80309621893674
51,75,62.8573954499516
51,76,58.17436600074668
51,77,51.31102954878093
51,78,62.07827649929367
51,79,57.514187399246225
51,80,49.45520079868999
51,81,43.13064517177987
51,82,36.24059429090078
51,83,24.63598472390354
51,84,57.780185143429044
51,85,47.78088628417216
51,86,39.48199260976791
51,87,34.36994260372981
51,88,38.62473213213218
51,89,42.295883784854595
51,90,79.7664834305495
51,91,73.05846546799003
51,92,66.30494826344169
51,93,56.468672343837326
51,94,50.3400242715034
51,95,45.01022773589369
51,96,35.53908145532886
51,97,29.772900126058406
51,98,46.017883003066004
51,99,47.14593897729145
51,100,49.92304006646246
51,101,52.749893057617825
51,102,55.390730095915096
51,103,57.51273297124945
51,104,59.51914474215217
51,105,62.16802132704497
51,106,64.4990261506403
51,107,66.47593645948908
51,108,70.17012942994647
51,109,72.39761430138158
51,110,75.65734473813676
51,111,99.14073411803544
51,112,103.93495201949263
51,114,115.01321433343583
51,115,120.7545852554923
51,116,98.21163278828786
51,118,103.92075548247954
51,120,111.13695779678731
51,123,113.9813555556322
51,124,120.64222470587195
51,125,128.30347661110423
52,53,10.44590012547533
52,54,25.005742900510356
52,55,36.70847271022528
52,56,50.38816800974186
52,57,39.49150988650091
52,58,27.379836653528898
52,59,17.71706839296464
52,60,13.351697774101028
52,61,15.994301597264885
52,62,24.032921353799857
52,63,34.031328254681036
52,64,111.79128450272924
52,65,105.0443209828292
52,66,96.24373767488697
52,67,85.34128373239616
52,68,77.12563052999697
52,69,65.17900681783972
52,70,56.240371787458415
52,71,44.520712477729205
52,72,63.13356444806227
52,73,67.38667411249527
52,74,70.23026713296632
52,75,71.52110015316481
52,76,66.89150096548768
52,77,60.862865629442716
52,78,69.80571244727996
52,79,64.71432447535722
52,80,56.67553054939402
52,81,51.184194914355984
52,82,45.711959736154256
52,83,35.10543965018144
52,84,62.33035865683326
52,85,51.29681482250377
52,86,42.04077602198908
52,87,37.41356614442724
52,88,43.72088350178146
52,89,49.35635768761234
52,90,78.2690345365119
52,91,71.2203000586259
52,92,64.2196569043494
52,93,54.780538969813634
52,94,48.36067583770026
52,95,43.51240352240056
52,96,33.10639607906105
52,97,26.36113117619705
52,98,53.612024438773325
52,99,54.54634420419865
52,100,56.935748063779215
52,101,59.29377327710183
52,102,61.59130570124997
52,103,63.422506626697114
52,104,65.25776550420812
52,105,67.67015109568142
52,106,69.81138574134903
52,107,71.48954329160226
52,108,74.9894911864022
52,109,76.80425844558228
52,110,79.90270867531518
52,111,105.86427126937276
52,112,110.09619321752099
52,114,120.29482772279124
52,115,125.49503655210447
52,116,104.08871483868646
52,118,108.9986689521251
52,120,115.42741038492042
52,123,115.97471867079587
52,124,122.58001276414265
52,125,130.22483866083783
53,54,15.32229803571013
53,55,27.615155925840384
53,56,59.914458904015504
53,57,49.03003900570876
53,58,36.92132458611268
53,59,25.60360967674719
53,60,16.800283628518937
53,61,12.372415686718053
53,62,15.269095568990634
53,63,24.720292462396337
53,64,121.6706930495998
53,65,115.1204596879567
53,66,106.49862529109943
53,67,95.70733172114123
53,68,87.51627854034615
53,69,75.59094751089215
53,70,66.65680199031036
53,71,54.910374233116016
53,72,68.43538589156363
53,73,73.76861821852617
53,74,77.29465016345
53,75,79.55538872594805
53,76,74.86952459493456
53,77,69.575103884295
53,78,76.99063554064853
53,79,71.45034588162997
53,80,63.48952327079549
53,81,58.749147253977675
53,82,54.48476619656322
53,83,44.784011530060866
53,84,67.14512947515152
53,85,55.464574137801044
53,86,45.74346876327232
53,87,41.63930236875028
53,88,49.162292242005336
53,89,56.17099963880078
53,90,78.3544823973098
53,91,70.98058245646935
53,92,63.655641668539054
53,93,54.68573453536899
53,94,48.0332181314187
53,95,43.6859760272036
53,96,32.941002396428374
53,97,25.875272077550747
53,98,61.44377962057397
53,99,62.38636910193824
53,100,64.65691078251771
53,101,66.80963207596687
53,102,68.91264315501074
53,103,70.5495875628658
53,104,72.29195267249457
53,105,74.56254624408719
53,106,76.58149595218046
53,107,78.05115435882294
53,108,81.40062609705822
53,109,82.89765732816343
53,110,85.87478127161218
53,111,113.07227961166926
53,112,116.88100228273052
53,114,126.37915555441042
53,115,131.13307776074953
53,116,109.66370527494179
53,118,113.99597126222108
53,120,119.82410510940419
53,123,118.33059853794173
53,124,124.87447564791741
53,125,132.4976253768337
54,55,13.027259116431603
54,56,74.36422420829976
54,57,63.70878934429397
54,58,51.81706303356546
54,59,40.637077959141834
54,60,30.987255883114017
54,61,22.612704731426586
54,62,14.875356380763352
54,63,16.02654851066173
54,64,133.73633232398512
54,65,127.56715031036151
54,66,119.2589914713189
54,67,108.81892247624069
54,68,100.69077154351723
54,69,88.89041570774471
54,70,80.14502886402232
54,71,68.421527859027
54,72,76.5071729333991
54,73,84.18154688827481
54,74,88.69161892416632
54,75,92.08302398572275
54,76,88.267010384698
54,77,83.6605480973828
54,78,89.27745662615473
54,79,83.91664221483602
54,80,76.70454849255688
54,81,72.76367893581099
54,82,69.06550986594492
54,83,59.49793715572351
54,84,76.38543140251683
54,85,64.89182638368493
54,86,55.54367489992417
54,87,53.068932513828074
54,88,62.08542072944186
54,89,69.81884537520831
54,90,76.60165162590242
54,91,69.60702189243867
54,92,63.28194247584479
54,93,56.43501328997275
54,94,51.050108417452655
54,95,48.85352455222625
54,96,40.12761536234028
54,97,34.823666536265584
54,98,72.0685678531932
54,99,72.3464629486786
54,100,73.66883188820218
54,101,74.8974580920589
54,102,76.36936532896308
54,103,77.52418389794862
54,104,78.90284068601179
54,105,80.70755824322126
54,106,82.35711380448451
54,107,83.3627990988535
54,108,86.29304031722162
54,109,87.1933123990458
54,110,89.82652180241115
54,111,119.93336109594046
54,112,122.8445453936059
54,114,130.880591601204
54,115,134.7786169572495
54,116,118.25570421207526
54,118,121.02553608734002
54,120,125.34727685722498
54,123,121.05950692751065
54,124,127.25999547370793
54,125,134.56410384773977
55,56,84.35381772028506
55,57,74.13286435114087
55,58,62.72059132695975
55,59,51.9130664316979
55,60,42.129855679617094
55,61,32.53112698033979
55,62,22.22124980279632
55,63,15.166232095955307
55,64,141.20241532826438
55,65,135.6048020721882
55,66,127.9087700235732
55,67,118.05845313523578
55,68,110.15341660771868
55,69,98.65789884123932
55,70,90.03439920374876
55,71,78.353096859522
55,72,79.93854708714568
55,73,89.59539263863077
55,74,94.99087309027368
55,75,99.50532513399166
55,76,96.74836696302192
55,77,92.99927621704151
55,78,96.53402150190713
55,79,91.54871577421251
55,80,85.35256118639613
55,81,82.31077751301481
55,82,79.22631544734746
55,83,70.06846267211884
55,84,80.96699131706181
55,85,70.08780284654685
55,86,61.522542170600474
55,87,60.738655910589245
55,88,71.03351100953019
55,89,79.1266531037307
55,90,71.77166660124416
55,91,65.21460326200678
55,92,59.93480376290306
55,93,55.29881935373488
55,94,51.493613794762645
55,95,51.44603589178634
55,96,45.392681359265126
55,97,42.24337080101277
55,98,78.12143916739193
55,99,77.94629171764866
55,100,78.64661436524904
55,101,79.32426283876153
55,102,80.39723879156956
55,103,81.21152779195648
55,104,82.40094491170784
55,105,83.96096536844647
55,106,85.41505619361385
55,107,86.14194050607686
55,108,88.81769325687704
55,109,89.29818701099444
55,110,91.77208957694397
55,111,122.43452696753032
55,112,124.59783761228053
55,114,131.4006465349208
55,115,134.57759247507764
55,116,121.43071842246198
55,118,122.70414244145257
55,120,125.62849951981852
55,123,118.9496124012947
55,124,124.78618979433051
55,125,131.7482286549371
56,57,11.182829283863121
56,58,23.500746441165663
56,59,35.78415631577538
56,60,46.63221139009751
56,61,56.14018201971228
56,62,68.048716697574
56,63,78.26448387256065
56,64,70.22741916170848
56,65,63.475220912733185
56,66,55.895815905366604
56,67,46.2785345547765
56,68,40.1466389857601
56,69,31.9593476853968
56,70,24.971712987159034
56,71,21.60818716845411
56,72,47.4130357136154
56,73,39.188828358893566
56,74,35.647405517407734
56,75,29.67034255489392
56,76,23.82223650695089
56,77,14.004456938974883
56,78,32.15331575597626
56,79,30.59232211355168
56,80,25.397841162732156
56,81,18.739211805327695
56,82,10.014806150637314
56,83,15.554414243170015
56,84,44.27338136515253
56,85,41.53120684554536
56,86,40.643315388499126
56,87,36.99760723385337
56,88,31.2281194613664
56,89,23.675446126479656
56,90,90.44796919474179
56,91,84.50404431060777
56,92,77.65573799629576
56,93,67.36307624090726
56,94,62.418381238156705
56,95,56.44207837658473
56,96,52.61820167772489
56,97,51.68781575415277
56,98,30.742796749283883
56,99,34.93776519194987
56,100,41.29153562606052
56,101,47.49012790675565
56,102,51.87882209131929
56,103,55.09620267539174
56,104,58.06128921732226
56,105,61.89094717156457
56,106,65.07839680058153
56,107,68.24582056682391
56,108,72.52136048725626
56,109,76.08501360275872
56,110,79.98320882590313
56,111,83.96005004314168
56,112,91.14114502063359
56,114,105.50702205998044
56,115,113.15597161930992
56,116,74.03681779760915
56,118,83.82013993340595
56,120,94.70036328993716
56,123,105.41737272806702
56,124,112.1337235836137
56,125,119.76806049988235
57,58,12.344504471574865
57,59,24.82830633429465
57,60,35.90253026902241
57,61,45.70947304905499
57,62,57.70034562392087
57,63,68.21087080385018
57,64,79.48894205521512
57,65,72.51911574987169
57,66,64.25898372549752
57,67,53.80133690532713
57,68,46.65883722122059
57,69,36.471616854156295
57,70,27.881516183774888
57,71,19.93356493640084
57,72,48.72817389404215
57,73,43.41271240690376
57,74,41.72965587870486
57,75,38.07577996618585
57,76,31.798267826473783
57,77,23.12972735500071
57,78,38.71877259786786
57,79,35.2833021855574
57,80,27.713926051308178
57,81,19.82963068000797
57,82,9.288037977137847
57,83,4.566884125662658
57,84,45.44545398564278
57,85,39.6667147741406
57,86,36.08518386741373
57,87,30.99478597382822
57,88,26.920307918070314
57,89,22.686703219638325
57,90,87.37894119365804
57,91,80.93835761650428
57,92,73.64213242938241
57,93,62.88931754540822
57,94,57.114400128026624
57,95,50.67016957591272
57,96,44.89728112967564
57,97,42.660806022683715
57,98,32.691836724798314
57,99,36.42138263737172
57,100,42.296888380616004
57,101,47.957857711670535
57,102,52.115350208307305
57,103,55.19350657171213
57,104,58.03759646617957
57,105,61.705492115934675
57,106,64.77941920610564
57,107,67.7239698950688
57,108,71.97936883129738
57,109,75.27311562621327
57,110,79.09560948053857
57,111,88.7922841572083
57,112,95.39600875343494
57,114,109.0229994823019
57,115,116.22070609247122
57,116,80.30605296473493
57,118,89.18320816131524
57,120,99.25731008438767
57,123,107.65716806320603
57,124,114.49093541975685
57,125,122.27520790700375
58,59,13.17044383320401
58,60,24.413893569400955
58,61,34.46356481582228
58,62,46.399217782545186
58,63,57.17664393703765
58,64,89.842440352723
58,65,82.79892185331049
58,66,74.11968317599168
58,67,63.210609794788674
58,68,55.44813301402291
58,69,44.1364581532981
58,70,34.98442889834283
58,71,24.3589988300437
58,72,52.020737566748686
58,73,49.93916302695734
58,74,49.98540776922042
58,75,48.29421388361661
58,76,42.21280319538636
58,77,34.62705236093229
58,78,47.68468584174665
58,79,43.12373688868316
58,80,34.565088896250074
58,81,27.177947199741894
58,82,19.16914468975898
58,83,8.0933070875747
58,84,49.04480869401476
58,85,40.56108860436946
58,86,34.14983798733274
58,87,27.949711056549305
58,88,27.258653946912894
58,89,27.613411351174317
58,90,84.44913207173914
58,91,77.58757943311501
58,92,70.00146426762409
58,93,59.07303899313361
58,94,52.576113942775905
58,95,45.93333352382994
58,96,37.89270651666599
58,97,33.874351774591354
58,98,37.72508396975307
58,99,40.62868024807869
58,100,45.55922185459722
58,101,50.318541343053084
58,102,54.020371884088334
58,103,56.80818610535864
58,104,59.41439203166964
58,105,62.78309940086537
58,106,65.64062676715963
58,107,68.25498510613825
58,108,72.38038585489261
58,109,75.2889895458382
58,110,78.95507094589067
58,111,94.42400690865956
58,112,100.34112467222909
58,114,113.03026370135117
58,115,119.67131241197549
58,116,87.70088335196796
58,118,95.47062834031303
58,120,104.54182075984288
58,123,110.42161560191974
58,124,117.29235153810265
58,125,125.1469117807727
59,60,11.415112419463249
59,61,21.977694100747858
59,62,34.06729389250129
59,63,45.28724630543316
59,64,102.51815065408226
59,65,95.67493843368005
59,66,87.10149177183307
59,67,76.1984928018491
59,68,68.32459514961779
59,69,56.78470549305269
59,70,47.594102379608806
59,71,36.43903683975308
59,72,56.16302380984432
59,73,56.07587210997309
59,74,57.489154931064704
59,75,57.692143633454535
59,76,51.242051455646525
59,77,45.10430323012376
59,78,55.27723486873312
59,79,49.44656163391828
59,80,40.31368956836752
59,81,34.225784709959406
59,82,29.402988510259018
59,83,21.030674212970933
59,84,51.9986112210128
59,85,41.12661736145155
59,86,32.25942637932846
59,87,25.115780423136847
59,88,27.72776972310754
59,89,32.456361335842075
59,90,82.9046372621507
59,91,75.26339826087127
59,92,66.70112638987148
59,93,55.35297384253824
59,94,47.63971716692804
59,95,40.43267965522539
59,96,29.69885272102593
59,97,23.382423186958977
59,98,45.66287370783109
59,99,48.487612264393306
59,100,53.174215055210105
59,101,57.57244632580414
59,102,61.024483927377375
59,103,63.58201779691674
59,104,66.0996286694739
59,105,69.32728529429335
59,106,72.0721551755685
59,107,74.43133781574008
59,108,78.47411228748062
59,109,81.0013262531328
59,110,84.59215296844532
59,111,103.07502584935226
59,112,108.44706223112323
59,114,120.32778643270292
59,115,126.44794073201047
59,116,93.7952094080912
59,118,100.9343380671583
59,120,109.3715666681805
59,123,112.5059254731067
59,124,119.46000131242006
59,125,127.45646198143498
60,61,10.906607660832034
60,62,22.956903847671054
60,63,34.415375319846866
60,64,112.71117125971637
60,65,106.14079361444267
60,66,97.7845371530805
60,67,87.03485604586191
60,68,79.12632855935296
60,69,67.4977096732529
60,70,58.279020095066734
60,71,46.79194640323154
60,72,59.910062017133974
60,73,61.84190880641243
60,74,64.40667292059054
60,75,66.10430855022037
60,76,59.997972638246466
60,77,54.967674128892085
60,78,62.69935747888351
60,79,56.4138605183489
60,80,47.650964918639794
60,81,42.86253114879534
60,82,39.742753982604754
60,83,32.19822577240156
60,84,55.539296313524105
60,85,43.494633462288675
60,86,33.479434640696596
60,87,27.15907571913709
60,88,32.857184208771244
60,89,39.968153392069155
60,90,80.59343150536776
60,91,72.47405678958616
60,92,63.38821752250537
60,93,52.193213959640815
60,94,43.8915880614224
60,95,36.88508148784388
60,96,24.513381519796816
60,97,16.22760391804822
60,98,52.538051224050385
60,99,55.086103955908996
60,100,59.36200471726965
60,101,63.33691889547037
60,102,66.50594856461291
60,103,68.81977178178705
60,104,71.22440544712515
60,105,74.29343126730991
60,106,76.91415764141937
60,107,79.03809989463053
60,108,82.96538840539219
60,109,85.14326161475184
60,110,88.64910789140869
60,111,109.28154987742894
60,112,114.11712629460415
60,114,125.18205137879673
60,115,130.7942687823798
60,116,98.74584198674823
60,118,105.01112877418883
60,120,112.63562653022012
60,123,113.32195588303071
60,124,120.24442305625219
60,125,128.25550184684715
61,62,12.241889297921604
61,63,23.572380739522178
61,64,120.59907823357993
61,65,114.43186629614812
61,66,106.46029982918688
61,67,96.0506998333504
61,68,88.1950298803344
61,69,76.6104581263829
61,70,67.39164118531181
61,71,55.658083837893216
61,72,62.118176698676095
61,73,66.30913165261401
61,74,69.99910780423606
61,75,73.08377801858069
61,76,67.8521467036735
61,77,63.80337660267028
61,78,69.17299810539691
61,79,62.95238761367473
61,80,55.087470647732786
61,81,51.46909912910917
61,82,49.29953383415665
61,83,42.0518952858574
61,84,58.37353075013924
61,85,46.01060321400118
61,86,35.87243964257215
61,87,31.555695131261587
61,88,39.783499143546116
61,89,48.01434383852961
61,90,76.13262508675575
61,91,67.76058095477045
61,92,58.541837244612644
61,93,48.03450572194861
61,94,39.81980118186412
